0,1,2,3,4,5,6,7,8,9,10,11,12,13,14,15,16,17,18,19,20,21,22,23,24,25,26,27,28,29,30,31,32,33,34,35,36,37,38,39,40,41,42,43,44,45,46,47,48,49,50,51,52,53,54,55,56,57,58,59,60,61,62,63,64,65,66,67,68,69,70,71,72,73,74,75,76,77,78,79,80,81,82,83,84,85,86,87,88,89,90,91,92,93,94,95,96,97,98,99,100,101,102,103,104,105,106,107,108,109,110,111,112,113,114,115,116,117,118,119,120,121,122,123,124,125,126,127,128,129,130,131,132,133,134,135,136,137,138,139,140,141,142,143,144,145,146,147,148,149,150,151,152,153,154,155,156,157,158,159,160,161,162,163,164,165,166,167,168,169,170,171,172,173,174,175,176,177,178,179,180,181,182,183,184,185,186,187,class
0.9730496406555174,0.6971631050109864,0.16382978856563568,0.0,0.04255319014191628,0.041843973100185394,0.02529550902545452,0.020094562321901314,0.014420803636312485,0.018912529572844505,0.020094562321901314,0.01489361748099327,0.0224586296826601,0.025768321007490158,0.02789598144590854,0.0347517728805542,0.03546099364757538,0.04113475233316422,0.04799054190516472,0.05390070751309395,0.06737588346004486,0.07257683575153351,0.07966902852058409,0.08439715951681137,0.0940898358821869,0.1080378219485283,0.1156028360128403,0.13475176692008972,0.15437352657318115,0.17092198133468628,0.19385342299938202,0.2037824988365173,0.22742316126823425,0.2390070855617523,0.24397163093090055,0.2382978796958924,0.21040189266204834,0.1808510571718216,0.14491726458072662,0.11394798755645752,0.08794326335191727,0.06288415938615799,0.05059101805090904,0.040425531566143036,0.035224586725234985,0.03427895903587341,0.026477541774511334,0.031442079693078995,0.02955082803964615,0.02789598144590854,0.035224586725234985,0.035224586725234985,0.03995271772146224,0.037352245301008224,0.03569740056991577,0.03380614519119263,0.03404255211353302,0.03120567463338375,0.030496453866362568,0.02765957452356816,0.028605200350284576,0.028132388368248936,0.028132388368248936,0.02789598144590854,0.025059102103114128,0.02765957452356816,0.021513001993298527,0.022931441664695736,0.026004727929830555,0.029314421117305756,0.026950353756546974,0.020094562321901314,0.021749408915638924,0.020330969244241714,0.017257682979106907,0.021276595070958138,0.013475176878273487,0.01985815539956093,0.01489361748099327,0.01773049682378769,0.021040190011262894,0.017966903746128082,0.021040190011262894,0.01962175033986568,0.018439715728163716,0.02316784858703613,0.02056737616658211,0.03286052122712135,0.03758865222334861,0.04208038002252579,0.04066193848848343,0.047754138708114624,0.05130023509263993,0.048463355749845505,0.046808511018753045,0.046099290251731866,0.043026003986597054,0.030260046944022175,0.0224586296826601,0.026950353756546974,0.02316784858703613,0.025059102103114128,0.023404255509376522,0.021749408915638924,0.021040190011262894,0.024113474413752556,0.02222222276031971,0.02316784858703613,0.010165484622120856,0.0661938562989235,0.3456264734268188,0.6534278988838196,1.0,0.8567376136779786,0.35200944542884827,0.08297872543334962,0.0723404288291931,0.09054373204708098,0.06855791807174683,0.062174942344427116,0.06453900784254074,0.0624113492667675,0.06784869730472565,0.07304964214563368,0.07423167675733566,0.08037824928760526,0.0869976356625557,0.09101654589176178,0.09574468433856963,0.10638298094272611,0.10945626348257065,0.10638298094272611,0.0,0.0,0.0,0.0,0.0,0.0,0.0,0.0,0.0,0.0,0.0,0.0,0.0,0.0,0.0,0.0,0.0,0.0,0.0,0.0,0.0,0.0,0.0,0.0,0.0,0.0,0.0,0.0,0.0,0.0,0.0,0.0,0.0,0.0,0.0,0.0,0.0,0.0,0.0,0.0,0.0,0.0,0.0,0.0,0.0,0.0,0.0,0.0,0.0,0.0,0.0,0.0,0.0,0.0,0.0,0.0,normal
0.9960674047470092,0.9314606785774232,0.5477527976036072,0.19550561904907224,0.11629213392734528,0.09943820536136626,0.0831460654735565,0.07471910119056702,0.06685393303632736,0.06292134523391724,0.06348314881324768,0.06629213690757753,0.06573034077882768,0.076966293156147,0.08033707737922668,0.08426966518163681,0.08876404166221619,0.09550561755895615,0.09775280952453613,0.11123595386743544,0.1179775297641754,0.12528090178966522,0.137078657746315,0.1488763988018036,0.16629213094711304,0.18202246725559235,0.19831460714340207,0.22415730357170105,0.24719101190567014,0.27359551191329956,0.2983146011829376,0.31685394048690796,0.33483144640922546,0.349438190460205,0.3544943928718567,0.3460674285888672,0.32078650593757624,0.28539326786994934,0.2460674196481705,0.2084269672632217,0.18258427083492282,0.1623595505952835,0.1426966339349747,0.13146068155765533,0.12528090178966522,0.11966291815042494,0.11573033779859543,0.12078651785850528,0.1202247217297554,0.11966291815042494,0.12191011011600494,0.1224719136953354,0.12528090178966522,0.12584269046783447,0.12415730208158493,0.12471909821033475,0.12359550595283507,0.12415730208158493,0.12584269046783447,0.12415730208158493,0.12303370982408525,0.12191011011600494,0.11629213392734528,0.1129213497042656,0.10337078571319581,0.09775280952453613,0.098314605653286,0.09719101339578626,0.096067413687706,0.09719101339578626,0.09550561755895615,0.09044943749904631,0.09213483333587646,0.08707865327596664,0.08764044940471649,0.08651685714721678,0.09550561755895615,0.12696629762649536,0.1550561785697937,0.16404494643211362,0.17640449106693268,0.20224718749523163,0.20674157142639163,0.21235954761505127,0.2398876398801803,0.20393258333206174,0.137078657746315,0.096067413687706,0.07303370535373686,0.06067415699362755,0.04550561681389809,0.04662921279668807,0.048314604908227914,0.038764044642448425,0.03764044865965844,0.03988764062523841,0.028089888393878937,0.026404494419693947,0.024719100445508964,0.025842696428298954,0.0,0.0028089887928217645,0.21179775893688196,0.7292134761810303,1.0,0.7264044880867006,0.2539325952529907,0.09438202530145645,0.10955056548118593,0.08595505356788635,0.061797752976417535,0.05000000074505806,0.05112359672784805,0.04044943675398826,0.03820224851369857,0.04719101265072823,0.04775280877947807,0.052808988839387894,0.050561796873807914,0.06516853719949721,0.07303370535373686,0.07247190922498703,0.0831460654735565,0.08651685714721678,0.0,0.0,0.0,0.0,0.0,0.0,0.0,0.0,0.0,0.0,0.0,0.0,0.0,0.0,0.0,0.0,0.0,0.0,0.0,0.0,0.0,0.0,0.0,0.0,0.0,0.0,0.0,0.0,0.0,0.0,0.0,0.0,0.0,0.0,0.0,0.0,0.0,0.0,0.0,0.0,0.0,0.0,0.0,0.0,0.0,0.0,0.0,0.0,0.0,0.0,0.0,0.0,0.0,0.0,0.0,0.0,0.0,0.0,0.0,0.0,0.0,0.0,0.0,0.0,normal
0.992664396762848,1.0,0.5389049053192139,0.07807178050279617,0.0620906464755535,0.09903065115213394,0.08304951339960097,0.07964369654655457,0.07309405505657196,0.0806916430592537,0.08016767352819441,0.08121561259031294,0.08959916234016417,0.09038511663675308,0.09641079604625702,0.10060256719589232,0.10007859766483305,0.10898611694574355,0.10951008647680281,0.1184176057577133,0.11946555227041245,0.12103746086359025,0.13492271304130554,0.14383023977279666,0.15692952275276184,0.1663610190153122,0.17605449259281158,0.1970133632421493,0.2098506689071655,0.23421534895896914,0.25334033370018005,0.2753471434116363,0.3036416172981262,0.321456640958786,0.33979564905166626,0.3387477099895477,0.3190987706184387,0.29080429673194885,0.24731464684009555,0.2056588977575302,0.16531307995319366,0.132040873169899,0.11160597205162047,0.0937909334897995,0.08645533025264741,0.0759758949279785,0.06837830692529678,0.06654440611600874,0.06235263124108315,0.058946818113327026,0.05685092881321908,0.05554100126028061,0.055802986025810235,0.050563268363475806,0.05292114242911339,0.045061565935611725,0.04217972233891488,0.043489649891853326,0.03641603514552116,0.03903589025139809,0.037725962698459625,0.034844119101762765,0.034320145845413215,0.02698454260826111,0.03117631562054157,0.029866388067603108,0.026722557842731476,0.030652344226837155,0.026722557842731476,0.027508514001965523,0.02593659982085228,0.023054754361510277,0.023840712383389473,0.01991092413663864,0.019648939371109005,0.019386952742934224,0.0183390099555254,0.01624312251806259,0.0091695049777627,0.008645533584058285,0.006549646146595479,0.008907519280910492,0.0068116323091089725,0.0034058161545544863,0.003929787781089543,0.0,0.0015719151124358175,0.00707361800596118,0.005239717196673156,0.007859575562179087,0.008383546955883505,0.0091695049777627,0.014933194033801554,0.017029080539941788,0.024102699011564255,0.03327220305800437,0.04034582152962685,0.03982184827327728,0.043751638382673264,0.051611211150884635,0.04060780629515648,0.02829447202384472,0.030914330855011943,0.029866388067603108,0.02069688215851784,0.012313335202634335,0.008121561259031296,0.013885250315070152,0.008645533584058285,0.013623264618217943,0.01414723601192236,0.008383546955883505,0.01178936380892992,0.01178936380892992,0.012051349505782127,0.002095886738970876,0.02462667040526867,0.31045323610305786,0.6347917318344116,0.9934503436088562,0.9402672052383424,0.4270369410514832,0.07859575748443602,0.04689546674489975,0.07230809330940248,0.05816086009144782,0.045061565935611725,0.04663348197937012,0.04060780629515648,0.044013623148202896,0.048729367554187775,0.04794340953230857,0.05475504323840141,0.05213518440723419,0.058946818113327026,0.0660204365849495,0.06837830692529678,0.07702384144067764,0.0759758949279785,0.08514539897441864,0.0,0.0,0.0,0.0,0.0,0.0,0.0,0.0,0.0,0.0,0.0,0.0,0.0,0.0,0.0,0.0,0.0,0.0,0.0,0.0,0.0,0.0,0.0,0.0,0.0,0.0,0.0,0.0,0.0,0.0,0.0,0.0,0.0,0.0,0.0,0.0,0.0,0.0,0.0,0.0,0.0,0.0,0.0,0.0,0.0,0.0,0.0,0.0,normal
0.991521418094635,0.3787093758583069,0.046632125973701484,0.026848798617720607,0.06594441831111908,0.11446066945791245,0.15779557824134824,0.15544041991233826,0.1563824713230133,0.16203485429286957,0.16391898691654205,0.16391898691654205,0.16815826296806335,0.1714554876089096,0.17333962023258206,0.1756947785615921,0.17804992198944092,0.17852096259593964,0.18040508031845087,0.18888366222381592,0.19170984625816345,0.19830428063869476,0.2020725458860397,0.2138483226299286,0.2265661805868149,0.2397550642490387,0.2633066475391388,0.2717851996421814,0.2878002822399139,0.301931232213974,0.31888836622238154,0.33961376547813416,0.35233160853385925,0.3457371592521668,0.3235986828804016,0.301931232213974,0.2736693322658539,0.2458784729242325,0.22373999655246732,0.20913800597190854,0.2011304795742035,0.19312293827533722,0.1954780966043472,0.19594912230968478,0.19312293827533722,0.18982571363449094,0.19170984625816345,0.18464437127113345,0.19359396398067474,0.19500707089900968,0.2020725458860397,0.19123880565166476,0.19406500458717346,0.1907677799463272,0.19500707089900968,0.194536030292511,0.19170984625816345,0.19218087196350095,0.1902967542409897,0.18747055530548093,0.18040508031845087,0.1813471466302872,0.17946302890777588,0.17239755392074585,0.17522373795509338,0.16815826296806335,0.16627414524555206,0.1667451709508896,0.1653320789337158,0.16203485429286957,0.16203485429286957,0.1610927879810333,0.15873762965202332,0.1582666039466858,0.15873762965202332,0.1629769206047058,0.19170984625816345,0.21526142954826355,0.22986340522766116,0.2270372062921524,0.24870465695858004,0.2722562551498413,0.27555346488952637,0.26189354062080383,0.24682053923606875,0.21808761358261108,0.1954780966043472,0.18087612092494962,0.14507772028446195,0.13377296924591062,0.12764954566955566,0.12058407813310623,0.11917098611593248,0.1111634448170662,0.11869995296001433,0.11493170261383055,0.10362694412469865,0.06782854348421098,0.24870465695858004,0.5723033547401428,0.825718343257904,1.0,0.6773433685302734,0.09090909361839294,0.008007536642253399,0.0,0.0494583137333393,0.11964201927185057,0.13612812757492065,0.13330192863941193,0.1413094699382782,0.1417804956436157,0.14272256195545194,0.14649081230163574,0.15544041991233826,0.15873762965202332,0.16015073657035828,0.0,0.0,0.0,0.0,0.0,0.0,0.0,0.0,0.0,0.0,0.0,0.0,0.0,0.0,0.0,0.0,0.0,0.0,0.0,0.0,0.0,0.0,0.0,0.0,0.0,0.0,0.0,0.0,0.0,0.0,0.0,0.0,0.0,0.0,0.0,0.0,0.0,0.0,0.0,0.0,0.0,0.0,0.0,0.0,0.0,0.0,0.0,0.0,0.0,0.0,0.0,0.0,0.0,0.0,0.0,0.0,0.0,0.0,0.0,0.0,0.0,0.0,0.0,0.0,0.0,0.0,0.0,0.0,0.0,0.0,0.0,normal
1.0,0.8331953883171082,0.2822847664356232,0.11216887086629869,0.08443708717823027,0.13907285034656525,0.16597682237625122,0.159768208861351,0.152731791138649,0.1705297976732254,0.16183774173259738,0.17384105920791623,0.17135761678218842,0.17880794405937192,0.1858443766832352,0.18708609044551847,0.19122517108917242,0.1990894079208374,0.2003311216831207,0.20778146386146545,0.21192052960395807,0.22930464148521426,0.23137417435646054,0.24254967272281644,0.256208598613739,0.26821193099021917,0.29511588811874384,0.3112582862377167,0.3302980065345764,0.3543046414852142,0.372516542673111,0.4023178815841674,0.4238410592079162,0.43625828623771673,0.4495033025741577,0.4598509967327117,0.4569536447525024,0.43874171376228327,0.40645694732666016,0.37624171376228327,0.33526489138603205,0.27069535851478577,0.25331124663352966,0.2350993305444717,0.20778146386146545,0.20281456410884857,0.1862582713365555,0.1924668848514557,0.18667218089103696,0.18543046712875366,0.18791390955448153,0.19081126153469086,0.18460264801979065,0.19577814638614652,0.17839403450489041,0.19205297529697415,0.1875,0.19205297529697415,0.18791390955448153,0.20157285034656525,0.18667218089103696,0.19619205594062802,0.19743376970291135,0.1924668848514557,0.19205297529697415,0.2003311216831207,0.18956953287124637,0.18046358227729797,0.18667218089103696,0.18667218089103696,0.18460264801979065,0.1903973519802093,0.1759105920791626,0.18004967272281644,0.1775662302970886,0.17922185361385345,0.18377482891082764,0.18956953287124637,0.18791390955448153,0.18211920559406278,0.17425496876239774,0.18170529603958127,0.1759105920791626,0.17922185361385345,0.17259933054447174,0.1829470247030258,0.17384105920791623,0.17384105920791623,0.1775662302970886,0.1775662302970886,0.1924668848514557,0.21109271049499512,0.2446192055940628,0.26407283544540405,0.2711092829704285,0.2599337697029114,0.2798013389110565,0.2884933650493622,0.25869205594062805,0.26490065455436707,0.2040562927722931,0.1779801398515701,0.1481788009405136,0.13286423683166504,0.13907285034656525,0.13451986014842987,0.13286423683166504,0.12955297529697418,0.1365894079208374,0.13327814638614652,0.12748344242572784,0.06995033472776413,0.0,0.04594370722770691,0.3418874144554138,0.7301324605941772,0.995860934257507,0.971854329109192,0.4701986610889434,0.20281456410884857,0.1138245016336441,0.16432119905948636,0.19453641772270203,0.18501655757427213,0.18543046712875366,0.18874172866344446,0.19453641772270203,0.1875,0.20074503123760226,0.19619205594062802,0.20364238321781158,0.21109271049499512,0.21523179113864896,0.2243377417325973,0.21523179113864896,0.22930464148521426,0.2350993305444717,0.24793046712875366,0.2541390657424927,0.0,0.0,0.0,0.0,0.0,0.0,0.0,0.0,0.0,0.0,0.0,0.0,0.0,0.0,0.0,0.0,0.0,0.0,0.0,0.0,0.0,0.0,0.0,0.0,0.0,0.0,0.0,0.0,0.0,0.0,0.0,0.0,0.0,0.0,0.0,0.0,0.0,0.0,0.0,0.0,0.0,0.0,0.0,0.0,0.0,0.0,0.0,0.0,0.0,normal
0.9696521162986754,0.7964470982551575,0.43301257491111755,0.1824574321508408,0.018134715035557743,0.057364914566278465,0.1236121356487274,0.12028127163648605,0.1169504076242447,0.11621021479368207,0.11621021479368207,0.12287195026874542,0.12509252130985263,0.13397483527660367,0.13249444961547852,0.1350851207971573,0.13878607749938965,0.14729829132556915,0.1506291627883911,0.15507031977176666,0.16284233331680295,0.16839377582073212,0.1820873469114304,0.18652850389480594,0.19837157428264615,0.2146558165550232,0.2316802442073822,0.2516654431819916,0.27313101291656494,0.29829755425453186,0.32679495215415955,0.3515914082527161,0.37194669246673584,0.3841598927974701,0.3934122920036316,0.38712066411972046,0.37823835015296936,0.34974092245101923,0.3179126679897308,0.2857142984867096,0.2427831292152405,0.20836417376995087,0.19059956073760986,0.1691339761018753,0.1609918624162674,0.1495188772678375,0.14729829132556915,0.13767579197883606,0.1350851207971573,0.13064396381378174,0.12768319249153134,0.1262028068304062,0.12435232847929002,0.12768319249153134,0.12805329263210294,0.13064396381378174,0.12509252130985263,0.13175424933433533,0.12694300711154935,0.123982235789299,0.1254626214504242,0.1247224286198616,0.12324204295873642,0.12287195026874542,0.12435232847929002,0.12509252130985263,0.1236121356487274,0.1236121356487274,0.12509252130985263,0.11991117894649503,0.12139156460762025,0.11472982913255693,0.11361954361200333,0.11398963630199432,0.1132494434714317,0.11398963630199432,0.11102886497974396,0.11435973644256593,0.11472982913255693,0.10880828648805617,0.10954847931861875,0.10917838662862776,0.10880828648805617,0.11102886497974396,0.10991857945919037,0.10362694412469865,0.10103627294301985,0.10325684398412703,0.0980755016207695,0.10140636563301086,0.09696520864963533,0.09696520864963533,0.09955588728189468,0.10066617280244829,0.09696520864963533,0.09659511595964433,0.09178386628627774,0.09622501581907271,0.09585492312908174,0.09733530879020691,0.0977054014801979,0.09141376614570616,0.0977054014801979,0.09141376614570616,0.09067357331514357,0.09178386628627774,0.09474463015794754,0.089933380484581,0.10029608011245728,0.11028867214918137,0.13545522093772888,0.1584011912345886,0.16580310463905334,0.20429311692714688,0.21761657297611237,0.21095484495162964,0.21058474481105804,0.17579570412635806,0.1676535904407501,0.1539600342512131,0.10103627294301985,0.07512953132390975,0.06550703197717667,0.06143597513437271,0.05995558947324753,0.05514433607459068,0.05255366489291191,0.02035529166460037,0.06587712466716766,0.21058474481105804,0.6502590775489807,1.0,0.9529978036880492,0.5173945426940918,0.21761657297611237,0.005551443435251714,0.0,0.0629163607954979,0.07735010981559755,0.07327905297279359,0.07475943863391875,0.07698001712560652,0.08438193798065186,0.08697260916233063,0.08660251647233964,0.09178386628627774,0.09511473029851912,0.10399703681468964,0.10806810110807417,0.11102886497974396,0.11880088597536087,0.12657290697097776,0.1332346349954605,0.0,0.0,0.0,0.0,0.0,0.0,0.0,0.0,0.0,0.0,0.0,0.0,0.0,0.0,0.0,0.0,0.0,0.0,0.0,0.0,0.0,0.0,0.0,0.0,0.0,0.0,0.0,0.0,0.0,0.0,0.0,0.0,0.0,0.0,0.0,normal
1.0,0.6429861783981324,0.26490065455436707,0.13485851883888242,0.1342564672231674,0.10776640474796297,0.09211318194866178,0.08729680627584459,0.09512341767549513,0.09331727772951126,0.08007224649190901,0.07284767925739288,0.08850090205669403,0.09753160923719405,0.09753160923719405,0.09090909361839294,0.09692955762147903,0.10897050052881241,0.11619506031274797,0.12703190743923187,0.1462974101305008,0.15653221309185028,0.17098133265972135,0.17459361255168915,0.17880794405937192,0.19867549836635587,0.233594223856926,0.25647199153900146,0.2757374942302704,0.2974112033843994,0.3305237889289856,0.3401565253734589,0.3552077114582062,0.37086093425750727,0.36423841118812555,0.33534014225006104,0.3100541830062867,0.26550272107124323,0.22335942089557648,0.18663455545902247,0.16556291282176971,0.15593016147613523,0.14990969002246854,0.13546057045459747,0.1234196275472641,0.12703190743923187,0.13245032727718353,0.1288380473852158,0.12462372332811357,0.12040939182043076,0.14148104190826416,0.14268513023853302,0.1300421506166458,0.12522576749324799,0.14930765330791473,0.1523178815841675,0.14087899029254913,0.142083078622818,0.13907285034656525,0.1336544305086136,0.1276339590549469,0.12462372332811357,0.1228175833821297,0.12040939182043076,0.11198073625564577,0.10596026480197905,0.1131848320364952,0.1198073476552963,0.10716436058282851,0.09873570501804352,0.08789885789155961,0.09030704200267792,0.09452137351036073,0.09030704200267792,0.09933774918317795,0.09391932934522626,0.125827819108963,0.1523178815841675,0.17399157583713531,0.17399157583713531,0.1884406954050064,0.21673691272735598,0.23841059207916254,0.2612883746623993,0.230583980679512,0.1571342498064041,0.10596026480197905,0.08308248221874237,0.07284767925739288,0.06381697952747345,0.0355207696557045,0.01143889222294092,0.023479832336306565,0.037326913326978683,0.028898254036903374,0.03010234795510769,0.022877784445881844,0.008428657427430155,0.007826610468327999,0.0,0.015051173977553844,0.22998194396495816,0.7495484352111816,0.9927754402160642,0.683323323726654,0.2366044521331787,0.11438892036676407,0.09753160923719405,0.037326913326978683,0.04575556889176369,0.05177604034543036,0.03973510116338729,0.03431667760014534,0.03311258181929589,0.03973510116338729,0.0355207696557045,0.03612281754612923,0.04575556889176369,0.05900060385465621,0.07224563509225845,0.07344973087310791,0.07405177503824233,0.07826610654592513,0.08067429065704344,0.09271523356437683,0.1131848320364952,0.0,0.0,0.0,0.0,0.0,0.0,0.0,0.0,0.0,0.0,0.0,0.0,0.0,0.0,0.0,0.0,0.0,0.0,0.0,0.0,0.0,0.0,0.0,0.0,0.0,0.0,0.0,0.0,0.0,0.0,0.0,0.0,0.0,0.0,0.0,0.0,0.0,0.0,0.0,0.0,0.0,0.0,0.0,0.0,0.0,0.0,0.0,0.0,0.0,0.0,0.0,0.0,0.0,0.0,0.0,0.0,0.0,0.0,0.0,0.0,0.0,0.0,normal
1.0,0.758593440055847,0.35084947943687433,0.13670486211776733,0.10509680211544035,0.09640458226203918,0.10628210008144377,0.09245357662439346,0.09126827120780943,0.08652706444263457,0.08297115564346315,0.07427894324064255,0.0620308183133602,0.08455155789852141,0.08573686331510544,0.08771236985921858,0.09482418000698087,0.11062821000814435,0.11813512444496152,0.13156855106353763,0.16041091084480286,0.19438956677913666,0.20584748685359955,0.2354800403118133,0.27222442626953125,0.29830107092857355,0.3097589910030365,0.33030423521995544,0.33306992053985596,0.33662584424018854,0.2809166312217712,0.2627420127391815,0.22125642001628879,0.18806795775890353,0.14934808015823361,0.1398656666278839,0.1442117691040039,0.11378901451826096,0.11141841113567352,0.10825760662555695,0.1157645210623741,0.10667720437049864,0.10746740549802782,0.12327143549919127,0.10351639986038208,0.10549189895391464,0.10312129557132721,0.12406163662672043,0.1173449233174324,0.11418411880731583,0.1189253255724907,0.10588700324296953,0.08850257098674776,0.11536941677331923,0.1129988133907318,0.08376135677099229,0.10904780775308608,0.10075069218873976,0.10470169782638547,0.12327143549919127,0.14144606888294226,0.13077834248542786,0.15606479346752167,0.16278150677680966,0.18925325572490687,0.2173054069280624,0.1967601776123047,0.16199131309986115,0.10786250233650208,0.07941525429487228,0.06321612000465393,0.05096799507737159,0.054128803312778466,0.044646386057138436,0.045436587184667594,0.03990517556667328,0.0,0.00711181340739131,0.19004346430301666,0.5997629165649414,0.9118925333023072,0.8672461509704589,0.4630580842494964,0.15606479346752167,0.05807980895042419,0.04622678831219673,0.08218095451593399,0.042275778949260705,0.05333860218524933,0.043065980076789856,0.05452390387654305,0.05531410500407218,0.05689450725913048,0.06677202880382538,0.0,0.0,0.0,0.0,0.0,0.0,0.0,0.0,0.0,0.0,0.0,0.0,0.0,0.0,0.0,0.0,0.0,0.0,0.0,0.0,0.0,0.0,0.0,0.0,0.0,0.0,0.0,0.0,0.0,0.0,0.0,0.0,0.0,0.0,0.0,0.0,0.0,0.0,0.0,0.0,0.0,0.0,0.0,0.0,0.0,0.0,0.0,0.0,0.0,0.0,0.0,0.0,0.0,0.0,0.0,0.0,0.0,0.0,0.0,0.0,0.0,0.0,0.0,0.0,0.0,0.0,0.0,0.0,0.0,0.0,0.0,0.0,0.0,0.0,0.0,0.0,0.0,0.0,0.0,0.0,0.0,0.0,0.0,0.0,0.0,0.0,0.0,0.0,0.0,0.0,0.0,0.0,0.0,0.0,normal
0.9324824810028076,0.9081926941871644,0.6620008349418639,0.3042404353618621,0.10251132398843764,0.0,0.08027995377779007,0.14409221708774567,0.14573898911476135,0.1486208289861679,0.1634417474269867,0.16591189801692963,0.1539728343486786,0.15479621291160583,0.16632358729839325,0.18114450573921204,0.19226019084453586,0.20502264797687528,0.20831617712974548,0.21655002236366272,0.22149032354354856,0.2375463098287582,0.24866199493408206,0.252367228269577,0.2717167437076569,0.2799505889415741,0.29230135679245,0.312885969877243,0.33100041747093195,0.3622890114784241,0.3734046816825866,0.38328531384468084,0.3960477709770202,0.4042815864086151,0.4162206649780274,0.4088101983070374,0.40304651856422413,0.3692877590656281,0.33347055315971375,0.3046521246433258,0.27706876397132874,0.2564841508865356,0.2371346205472946,0.23960477113723755,0.2251955568790436,0.21407987177371976,0.20584602653980252,0.19431865215301516,0.1918485015630722,0.19143681228160858,0.18937835097312927,0.19555371999740603,0.19226019084453586,0.1972004920244217,0.19884726405143738,0.19431865215301516,0.18567311763763428,0.19143681228160858,0.19473034143447876,0.19884726405143738,0.20214079320430756,0.20502264797687528,0.20543433725833887,0.21366818249225614,0.2107863277196884,0.21407987177371976,0.2157266438007355,0.21737340092659002,0.22107863426208496,0.22396047413349152,0.21902017295360562,0.2272540181875229,0.22684232890605924,0.22354878485202787,0.21243309974670407,0.20955125987529757,0.20749279856681824,0.20502264797687528,0.20214079320430756,0.20214079320430756,0.1951420307159424,0.1918485015630722,0.19431865215301516,0.20543433725833887,0.21490325033664706,0.21490325033664706,0.21902017295360562,0.2260189354419708,0.23137094080448156,0.2441333830356598,0.2638946175575256,0.2799505889415741,0.30053520202636724,0.3137093484401703,0.32564842700958246,0.3120625913143158,0.30753397941589355,0.2680115401744842,0.2638946175575256,0.24619184434413904,0.20584602653980252,0.17455743253231049,0.1675586700439453,0.16097159683704376,0.16591189801692963,0.1737340539693832,0.17785096168518066,0.17332234978675842,0.15520790219306946,0.19596542418003077,0.4783861637115479,0.897076964378357,1.0,0.8052696585655214,0.4026348292827607,0.19473034143447876,0.03458213433623314,0.0773981064558029,0.16508851945400238,0.1696171313524246,0.17044050991535187,0.17743927240371704,0.18526142835617063,0.19308356940746307,0.19555371999740603,0.20996294915676122,0.2144915610551834,0.22272540628910065,0.22149032354354856,0.22684232890605924,0.2391930818557739,0.24125154316425326,0.25524908304214483,0.26965829730033875,0.0,0.0,0.0,0.0,0.0,0.0,0.0,0.0,0.0,0.0,0.0,0.0,0.0,0.0,0.0,0.0,0.0,0.0,0.0,0.0,0.0,0.0,0.0,0.0,0.0,0.0,0.0,0.0,0.0,0.0,0.0,0.0,0.0,0.0,0.0,0.0,0.0,0.0,0.0,0.0,0.0,0.0,0.0,0.0,0.0,0.0,0.0,0.0,0.0,0.0,0.0,0.0,0.0,0.0,normal
0.9105006456375122,0.9729729890823362,0.7430217266082764,0.3389455080032349,0.13735046982765198,0.0,0.050509527325630174,0.1426672637462616,0.15551617741584775,0.1568453758955002,0.16614975035190582,0.17102348804473874,0.16880814731121063,0.16969428956508636,0.1794417351484299,0.19539211690425873,0.20070891082286835,0.1967213153839112,0.19937971234321597,0.20070891082286835,0.19539211690425873,0.19805051386356354,0.2046965062618256,0.2224191427230835,0.22995126247406006,0.23748338222503665,0.26007974147796636,0.274700939655304,0.29463890194892883,0.3136907517910004,0.32388126850128174,0.3455914855003357,0.3548958897590637,0.3677448034286499,0.3819229006767273,0.38502436876297,0.381036788225174,0.3619849383831024,0.33185645937919617,0.2964111566543579,0.2667257487773895,0.23792645335197446,0.2197607457637787,0.201151967048645,0.1843154579401016,0.1705804169178009,0.163491353392601,0.1581745743751526,0.15064243972301486,0.15019938349723816,0.15330083668231964,0.16437749564647672,0.17146654427051544,0.1648205518722534,0.16127602756023404,0.15906070172786713,0.1674789488315582,0.1705804169178009,0.17235268652439117,0.17412494122982022,0.1745680123567581,0.1812140047550201,0.1812140047550201,0.1763402819633484,0.17855560779571533,0.16570669412612915,0.1674789488315582,0.16792201995849607,0.16614975035190582,0.16880814731121063,0.1719096153974533,0.15773150324821472,0.1617190986871719,0.1466548442840576,0.1470979154109955,0.1444395184516907,0.1422241926193237,0.15019938349723816,0.15551617741584775,0.15551617741584775,0.1581745743751526,0.16614975035190582,0.16437749564647672,0.16614975035190582,0.16393442451953888,0.1564023047685623,0.16393442451953888,0.15994682908058167,0.16703589260578158,0.17235268652439117,0.1816570609807968,0.17811253666877747,0.17501108348369598,0.17589721083641052,0.17146654427051544,0.17412494122982022,0.1843154579401016,0.20248116552829745,0.22817899286746976,0.25121843814849854,0.27292865514755243,0.3039432764053345,0.303500235080719,0.30926007032394404,0.31989365816116333,0.2875498533248901,0.2769162654876709,0.25830748677253723,0.21577315032482147,0.1843154579401016,0.16836509108543396,0.15861763060092926,0.15330083668231964,0.15418697893619535,0.16038990020751953,0.15330083668231964,0.13380593061447146,0.1998227685689926,0.5250332355499268,0.9623394012451172,1.0,0.780682325363159,0.3597696125507355,0.15019938349723816,0.022596366703510284,0.08994240313768387,0.18032786250114438,0.18077093362808228,0.1798848062753677,0.17146654427051544,0.18564465641975397,0.18298625946044922,0.19007532298564914,0.19450597465038297,0.19805051386356354,0.2113424837589264,0.22286221385002136,0.23836952447891235,0.2450155019760132,0.2481169700622558,0.2556490898132324,0.0,0.0,0.0,0.0,0.0,0.0,0.0,0.0,0.0,0.0,0.0,0.0,0.0,0.0,0.0,0.0,0.0,0.0,0.0,0.0,0.0,0.0,0.0,0.0,0.0,0.0,0.0,0.0,0.0,0.0,0.0,0.0,0.0,0.0,0.0,0.0,0.0,0.0,0.0,0.0,0.0,0.0,0.0,0.0,0.0,0.0,0.0,normal
0.9390815496444702,0.3355201482772827,0.1986879110336304,0.053420804440975196,0.15463916957378387,0.17150890827178958,0.15932521224021912,0.1480787247419357,0.15089035034179688,0.157450795173645,0.1405810713768005,0.16401124000549314,0.1649484485387802,0.17150890827178958,0.18275539577007294,0.1911902576684952,0.2080599814653397,0.21930646896362305,0.2361761927604675,0.24648547172546384,0.24648547172546384,0.2680412232875824,0.2895970046520233,0.3045923113822937,0.3336457312107086,0.3477038443088532,0.3655107915401459,0.39831301569938654,0.4179943799972535,0.4320524930953979,0.4442361891269684,0.4545454680919647,0.4545454680919647,0.4432989656925202,0.41237112879753113,0.3701968193054199,0.3598875403404236,0.31490159034729004,0.2886597812175751,0.28678539395332336,0.25960636138916016,0.25585755705833435,0.2605435848236084,0.253045916557312,0.25773194432258606,0.25960636138916016,0.2539831399917603,0.25585755705833435,0.2427366375923157,0.2474226802587509,0.248359888792038,0.2446110546588898,0.2417994439601898,0.23055295646190646,0.21743205189704892,0.23430177569389346,0.2417994439601898,0.27366447448730463,0.31677600741386414,0.37582007050514227,0.4226804077625274,0.44704779982566833,0.5079662799835206,0.4798500537872314,0.5070290565490723,0.43955013155937206,0.37582007050514227,0.27835050225257874,0.21180881559848785,0.1846297979354858,0.16213683784008026,0.1611996293067932,0.1396438628435135,0.1283973753452301,0.1302717924118042,0.1049671992659569,0.1021555736660957,0.16776007413864136,0.3636363744735718,0.506091833114624,1.0,0.33926898241043085,0.1855670064687729,0.0,0.09746953845024109,0.14620430767536163,0.11996251344680785,0.10965323448181152,0.11152764409780502,0.1152764782309532,0.11433926969766617,0.1396438628435135,0.1405810713768005,0.14620430767536163,0.1480787247419357,0.15932521224021912,0.17338331043720243,0.0,0.0,0.0,0.0,0.0,0.0,0.0,0.0,0.0,0.0,0.0,0.0,0.0,0.0,0.0,0.0,0.0,0.0,0.0,0.0,0.0,0.0,0.0,0.0,0.0,0.0,0.0,0.0,0.0,0.0,0.0,0.0,0.0,0.0,0.0,0.0,0.0,0.0,0.0,0.0,0.0,0.0,0.0,0.0,0.0,0.0,0.0,0.0,0.0,0.0,0.0,0.0,0.0,0.0,0.0,0.0,0.0,0.0,0.0,0.0,0.0,0.0,0.0,0.0,0.0,0.0,0.0,0.0,0.0,0.0,0.0,0.0,0.0,0.0,0.0,0.0,0.0,0.0,0.0,0.0,0.0,0.0,0.0,0.0,0.0,0.0,0.0,0.0,0.0,0.0,0.0,normal
1.0,0.6006205677986145,0.3592641949653625,0.1527038961648941,0.166223406791687,0.18328900635242465,0.18661347031593317,0.18528369069099426,0.18328900635242465,0.18240247666835782,0.18572695553302765,0.18661347031593317,0.19171099364757535,0.1923758834600449,0.19281914830207825,0.19946809113025665,0.20146276056766513,0.2096631228923798,0.21542553603649134,0.22296099364757535,0.2329344004392624,0.24091312289237976,0.25132977962493896,0.2677305042743683,0.28457447886466974,0.29986703395843506,0.314937949180603,0.327570915222168,0.33732268214225763,0.3446365296840668,0.3490691483020782,0.3477393686771392,0.33377659320831293,0.3080673813819885,0.27947694063186646,0.25199466943740845,0.2293882966041565,0.211214542388916,0.195035457611084,0.1923758834600449,0.1868351101875305,0.1808510571718216,0.18018616735935208,0.1768617033958435,0.1804078072309494,0.18262411653995517,0.18262411653995517,0.1855053156614304,0.18351063132286072,0.18816488981246948,0.18639184534549716,0.1870567351579666,0.1910461038351059,0.18882979452610013,0.18860815465450287,0.1903811991214752,0.1921542584896088,0.19392730295658112,0.18971630930900574,0.19304077327251437,0.19614361226558685,0.19348403811454767,0.1923758834600449,0.1908244639635086,0.18860815465450287,0.18816488981246948,0.1877216249704361,0.18661347031593317,0.18860815465450287,0.20567375421524048,0.2160904258489609,0.2231826186180115,0.22473403811454767,0.2278368771076202,0.24335105717182165,0.24867020547389984,0.25132977962493896,0.23758865892887115,0.21498227119445798,0.18816488981246948,0.1804078072309494,0.17132091522216797,0.16445034742355347,0.16445034742355347,0.1664450317621231,0.16378545761108398,0.16489361226558685,0.1704344004392624,0.1671099364757538,0.1702127605676651,0.17087766528129575,0.1595744639635086,0.05031028389930726,0.0,0.2389184385538101,0.5722517967224122,0.9457003474235532,0.808953881263733,0.4776152372360229,0.2615248262882233,0.16467198729515076,0.19924645125865936,0.20944148302078247,0.20323581993579865,0.20545212924480444,0.20523048937320706,0.2043439745903015,0.20611701905727384,0.21387411653995517,0.21542553603649134,0.21985815465450287,0.2220744639635086,0.2291666716337204,0.2318262457847595,0.24002659320831296,0.2506648898124694,0.2566489279270172,0.265070915222168,0.27304965257644653,0.28302305936813354,0.3005319237709045,0.0,0.0,0.0,0.0,0.0,0.0,0.0,0.0,0.0,0.0,0.0,0.0,0.0,0.0,0.0,0.0,0.0,0.0,0.0,0.0,0.0,0.0,0.0,0.0,0.0,0.0,0.0,0.0,0.0,0.0,0.0,0.0,0.0,0.0,0.0,0.0,0.0,0.0,0.0,0.0,0.0,0.0,0.0,0.0,0.0,0.0,0.0,0.0,0.0,0.0,0.0,0.0,0.0,0.0,0.0,0.0,0.0,0.0,0.0,0.0,0.0,0.0,0.0,0.0,0.0,0.0,0.0,normal
0.955513775348663,1.0,0.4768170416355132,0.026942355558276176,0.03884711861610413,0.1741854697465897,0.3139097690582276,0.3421052694320679,0.37531328201293945,0.37593984603881847,0.3815789520740509,0.3815789520740509,0.39348369836807245,0.39097744226455683,0.38784462213516235,0.4028822183609008,0.41541352868080134,0.4047619104385376,0.4003759324550629,0.4191729426383972,0.4003759324550629,0.41854637861251837,0.4078947305679321,0.4317042529582977,0.4454887211322784,0.4498746991157532,0.4573934972286224,0.4304511249065399,0.4661654233932495,0.4855889678001404,0.4918546378612519,0.5,0.530075192451477,0.5651628971099854,0.5676691532135009,0.5808270573616028,0.6065163016319274,0.6378446221351624,0.628446102142334,0.6347118020057678,0.6271929740905761,0.5833333134651185,0.5413534045219421,0.5,0.4492481350898743,0.4266917407512665,0.38784462213516235,0.37531328201293945,0.3508771955966949,0.33709272742271423,0.3352130353450775,0.33834585547447205,0.3339599072933197,0.32769423723220825,0.32769423723220825,0.32706767320632935,0.31704261898994446,0.3289473652839661,0.3226816952228546,0.3515037596225738,0.3515037596225738,0.35275688767433167,0.3640350997447968,0.3477443754673004,0.3546365797519684,0.359649121761322,0.36779448390007013,0.3540100157260895,0.3552631437778473,0.35213032364845276,0.34147870540618896,0.3339599072933197,0.3358395993709564,0.3345864713191986,0.3446115255355835,0.33646616339683527,0.31704261898994446,0.3289473652839661,0.3308270573616028,0.3251879811286926,0.3101503849029541,0.34085214138031,0.3088972568511963,0.3001253008842468,0.31829574704170227,0.32769423723220825,0.31829574704170227,0.3101503849029541,0.3245614171028137,0.31704261898994446,0.31766918301582336,0.3358395993709564,0.3765664100646973,0.4035087823867798,0.39724311232566833,0.4035087823867798,0.3853383362293243,0.3665413558483124,0.39598998427391047,0.3865914642810822,0.3665413558483124,0.34962406754493713,0.34022557735443115,0.3239348232746124,0.3088972568511963,0.3007518649101257,0.30576440691947937,0.2976190447807312,0.29010024666786194,0.2832080125808716,0.2951127886772156,0.2963659167289734,0.3001253008842468,0.2794486284255981,0.2218045145273209,0.3302004933357239,0.5946115255355835,0.897243082523346,0.9724310636520384,0.6842105388641357,0.2286967486143112,0.0,0.21303258836269376,0.2775689363479614,0.34147870540618896,0.3552631437778473,0.3508771955966949,0.36904761195182795,0.3696741759777069,0.35776942968368525,0.38095238804817205,0.3671679198741913,0.371553897857666,0.0,0.0,0.0,0.0,0.0,0.0,0.0,0.0,0.0,0.0,0.0,0.0,0.0,0.0,0.0,0.0,0.0,0.0,0.0,0.0,0.0,0.0,0.0,0.0,0.0,0.0,0.0,0.0,0.0,0.0,0.0,0.0,0.0,0.0,0.0,0.0,0.0,0.0,0.0,0.0,0.0,0.0,0.0,0.0,0.0,0.0,0.0,0.0,0.0,0.0,0.0,0.0,0.0,0.0,0.0,normal
0.94121515750885,0.5617460012435913,0.359069973230362,0.2195656895637512,0.23491993546485904,0.2474226802587509,0.2454485595226288,0.2393068671226501,0.24150033295154566,0.24259705841541285,0.2450098693370819,0.2472033351659775,0.2502741813659668,0.2546611130237579,0.25597718358039856,0.2618995308876037,0.264312356710434,0.27001535892486567,0.2796666026115417,0.2847115695476532,0.2930467128753662,0.3020399212837219,0.3112524747848511,0.32814213633537287,0.3434963822364807,0.3568765223026276,0.37135335803031927,0.3836367726325989,0.3939460515975952,0.39942970871925365,0.40381664037704473,0.40250054001808167,0.3937267065048218,0.36894056200981135,0.339328795671463,0.31147181987762446,0.2869050204753876,0.2673831880092621,0.25356438755989075,0.24764202535152435,0.23821012675762174,0.23645536601543424,0.23645536601543424,0.2366747111082077,0.23579733073711395,0.23250712454319,0.23206843435764316,0.2322877794504166,0.23491993546485904,0.2347005903720856,0.23272646963596344,0.2318490892648697,0.23097170889377594,0.22921693325042725,0.23294581472873685,0.23206843435764316,0.22921693325042725,0.23053301870822904,0.2285588979721069,0.2287782430648804,0.2272428125143051,0.22987496852874756,0.22746215760707855,0.2272428125143051,0.2246106564998627,0.22680412232875824,0.22504934668540957,0.22197850048542023,0.22219784557819366,0.220881775021553,0.21890765428543088,0.2167141884565353,0.21803027391433716,0.2169335335493088,0.2171528786420822,0.21517877280712128,0.2143013775348664,0.21342399716377256,0.21254661679267886,0.21846896409988403,0.23119105398654935,0.24347443878650665,0.24895811080932614,0.24851940572261805,0.2575125992298127,0.2686992883682251,0.2746216356754303,0.2616801857948303,0.25509980320930475,0.2228558957576752,0.20552752912044525,0.19850844144821167,0.1934634745121002,0.18666374683380127,0.18403159081935877,0.18183812499046323,0.18249616026878362,0.18315419554710388,0.1811800897121429,0.180302694439888,0.1811800897121429,0.17876727879047394,0.13423997163772586,0.0,0.12349199503660202,0.3801272213459015,0.7442421317100526,1.0,0.5985961556434632,0.3803465664386749,0.187541127204895,0.1952182501554489,0.21254661679267886,0.20991446077823642,0.2061855643987656,0.20311471819877625,0.20552752912044525,0.20859837532043454,0.20728230476379395,0.21320465207099917,0.21605615317821505,0.21890765428543088,0.220881775021553,0.2248300015926361,0.22833955287933344,0.23338451981544495,0.24193902313709256,0.25093221664428705,0.0,0.0,0.0,0.0,0.0,0.0,0.0,0.0,0.0,0.0,0.0,0.0,0.0,0.0,0.0,0.0,0.0,0.0,0.0,0.0,0.0,0.0,0.0,0.0,0.0,0.0,0.0,0.0,0.0,0.0,0.0,0.0,0.0,0.0,0.0,0.0,0.0,0.0,0.0,0.0,0.0,0.0,0.0,0.0,0.0,0.0,0.0,0.0,0.0,0.0,0.0,0.0,0.0,0.0,0.0,0.0,0.0,0.0,0.0,0.0,normal
0.9972615242004395,0.6136467456817627,0.359653115272522,0.159972608089447,0.14970333874225614,0.17229574918746948,0.1741214096546173,0.16955727338790894,0.16910086572170255,0.17206755280494687,0.17138293385505676,0.17298036813735962,0.1764034628868103,0.18142400681972504,0.1850753128528595,0.1882701963186264,0.1923779100179672,0.19990871846675873,0.20515745878219602,0.20858055353164673,0.21862164139747614,0.2270652651786804,0.2396166175603866,0.2517115473747253,0.26791420578956604,0.28480145335197443,0.30031949281692505,0.31446826457977295,0.32724782824516296,0.33569145202636724,0.3416248261928558,0.3450479209423065,0.34071201086044317,0.3206298351287841,0.2882245481014252,0.25810131430625916,0.2302601486444473,0.20584207773208615,0.1907804608345032,0.17800091207027438,0.17001369595527646,0.16818803548812866,0.16293929517269132,0.162482887506485,0.16590598225593564,0.16567777097225186,0.1665906012058258,0.16636238992214203,0.1665906012058258,0.16750341653823853,0.16955727338790894,0.17024189233779907,0.17229574918746948,0.17138293385505676,0.17275217175483704,0.17206755280494687,0.17457781732082364,0.17594705522060392,0.17434960603713986,0.1761752665042877,0.17503422498703003,0.17343679070472717,0.1732085794210434,0.17092651128768924,0.17275217175483704,0.17069831490516663,0.17047010362148285,0.16841624677181244,0.16910086572170255,0.16704700887203214,0.16499315202236176,0.1652213633060455,0.16408032178878784,0.16499315202236176,0.16020081937313083,0.16134184598922727,0.162482887506485,0.16362391412258148,0.16157005727291107,0.16271108388900754,0.1631675064563751,0.16271108388900754,0.16408032178878784,0.1631675064563751,0.16841624677181244,0.18461889028549197,0.19511638581752774,0.20561388134956357,0.20447283983230594,0.2092651724815369,0.22432678937911987,0.22364217042922974,0.2238703817129135,0.21611136198043826,0.1907804608345032,0.16795983910560608,0.15700593590736386,0.15152898430824283,0.1494751274585724,0.14696486294269562,0.14810588955879211,0.1492469161748886,0.14742127060890195,0.14856229722499847,0.14810588955879211,0.14993153512477875,0.14879050850868225,0.1303057968616486,0.0,0.011866727843880653,0.25696030259132385,0.6223185658454895,1.0,0.7083523273468018,0.42240986227989197,0.20515745878219602,0.1544956713914871,0.1850753128528595,0.18941122293472287,0.18575993180274963,0.18142400681972504,0.18324965238571167,0.1869009584188461,0.1887266039848328,0.1916932910680771,0.19580100476741794,0.19876769185066226,0.2005933374166489,0.2042446434497833,0.21040621399879453,0.21565495431423187,0.22295755147933957,0.23048835992813116,0.2405294328927994,0.0,0.0,0.0,0.0,0.0,0.0,0.0,0.0,0.0,0.0,0.0,0.0,0.0,0.0,0.0,0.0,0.0,0.0,0.0,0.0,0.0,0.0,0.0,0.0,0.0,0.0,0.0,0.0,0.0,0.0,0.0,0.0,0.0,0.0,0.0,0.0,0.0,0.0,0.0,0.0,0.0,0.0,0.0,0.0,0.0,0.0,0.0,0.0,0.0,0.0,0.0,0.0,0.0,0.0,normal
1.0,0.35379892587661743,0.09823483973741531,0.06062931567430496,0.10667689889669417,0.15272447466850278,0.1611665338277817,0.13967767357826233,0.14658480882644653,0.1511895656585693,0.15272447466850278,0.1596316248178482,0.17191097140312195,0.1688411384820938,0.17728319764137268,0.17421334981918332,0.1734458953142166,0.17574827373027802,0.18495778739452357,0.19416730105876923,0.20107443630695346,0.20721411705017087,0.21642363071441648,0.22256331145763397,0.24098235368728635,0.2455871105194092,0.2640061378479004,0.28626248240470886,0.30161166191101074,0.3277052938938141,0.3607060611248016,0.4029163420200348,0.44282424449920654,0.4927091300487518,0.5525709986686707,0.59247887134552,0.6285495162010193,0.659247875213623,0.6876438856124878,0.6830391287803649,0.6653875708580017,0.6346891522407532,0.5825019478797911,0.5157329440116881,0.44205680489540095,0.3783576488494873,0.3254029154777527,0.2724481821060181,0.2317728251218796,0.2087490409612656,0.198772057890892,0.1826554089784622,0.17958557605743408,0.17191097140312195,0.1688411384820938,0.1688411384820938,0.164236381649971,0.16346891224384308,0.1511895656585693,0.14811971783638,0.1588641554117203,0.16653876006603238,0.16346891224384308,0.15732924640178683,0.16039907932281494,0.16039907932281494,0.1580967009067535,0.15272447466850278,0.15349194407463074,0.14735226333141324,0.136607825756073,0.13123561441898346,0.1320030689239502,0.13046814501285553,0.13046814501285553,0.13123561441898346,0.12586338818073273,0.12586338818073273,0.12663085758686066,0.12049117684364317,0.12125863134860992,0.11204911768436432,0.12586338818073273,0.12586338818073273,0.13046814501285553,0.12893323600292203,0.11818879842758177,0.12049117684364317,0.1189562529325485,0.12202609330415723,0.11511895805597305,0.11128165572881697,0.11588641256093977,0.10514198243618013,0.10207214206457138,0.09900230169296263,0.10437452048063278,0.10053721815347673,0.10130468010902403,0.10514198243618013,0.10437452048063278,0.10514198243618013,0.10283960402011873,0.09439754486083984,0.10590943694114685,0.10514198243618013,0.10437452048063278,0.10053721815347673,0.09976976364850998,0.10130468010902403,0.09516500681638718,0.09900230169296263,0.10053721815347673,0.09823483973741531,0.09976976364850998,0.10514198243618013,0.10053721815347673,0.09286262840032575,0.09900230169296263,0.09823483973741531,0.09900230169296263,0.09976976364850998,0.09669992327690125,0.09516500681638718,0.09900230169296263,0.12049117684364317,0.1711435168981552,0.1749808192253113,0.19416730105876923,0.24712201952934265,0.2632386684417725,0.19723714888095853,0.1749808192253113,0.1189562529325485,0.07828088849782942,0.06216423586010932,0.05065234005451201,0.05065234005451201,0.04144282266497613,0.046815041452646255,0.05295471847057344,0.03683806583285332,0.03223330900073052,0.13891020417213443,0.39754411578178406,0.8096699714660645,0.951650023460388,0.2586339116096496,0.0,0.03069838881492615,0.07751343399286272,0.11051420122385024,0.09669992327690125,0.08365310728549957,0.0821181908249855,0.08825786411762238,0.0890253260731697,0.09286262840032575,0.09976976364850998,0.10514198243618013,0.11588641256093977,0.11665387451648712,0.11818879842758177,0.11818879842758177,0.12663085758686066,0.13123561441898346,0.1435149610042572,0.15195702016353607,0.15579432249069214,0.1611665338277817,0.17574827373027802,0.0,0.0,0.0,0.0,0.0,0.0,0.0,0.0,0.0,0.0,0.0,0.0,0.0,0.0,0.0,0.0,0.0,normal
1.0,0.5755706429481505,0.1233806312084198,0.00801974069327116,0.0,0.07834669947624207,0.10826650261878967,0.1474398523569107,0.17088216543197632,0.1841455847024918,0.1829117834568024,0.19031462073326114,0.19710054993629453,0.2035780400037765,0.21036396920680997,0.21653300523757932,0.22085133194923398,0.2251696437597275,0.2285626083612442,0.2378161698579788,0.24922886490821844,0.25447255373001093,0.2686613202095032,0.2828500866889954,0.3013571798801422,0.3263417780399322,0.3491671681404114,0.3695249855518341,0.3914250433444976,0.40777298808097845,0.43090686202049255,0.44540408253669733,0.4546576142311096,0.4361505210399628,0.3966687321662903,0.35441085696220404,0.30752623081207275,0.2732881009578705,0.2433682978153229,0.2260950058698654,0.216841459274292,0.21128933131694796,0.2091301679611206,0.20419494807720184,0.20049352943897247,0.20481184124946594,0.20512029528617856,0.21128933131694796,0.21591609716415405,0.21375693380832672,0.2174583524465561,0.216841459274292,0.21067242324352262,0.21653300523757932,0.21468229591846466,0.2091301679611206,0.21036396920680997,0.2097470760345459,0.2134484946727753,0.2097470760345459,0.20604565739631647,0.2026526778936386,0.20296113193035123,0.19710054993629453,0.19463294744491577,0.19031462073326114,0.18630474805831906,0.18445403873920443,0.18723011016845703,0.1804441660642624,0.183220237493515,0.18260332942008967,0.18352869153022766,0.19031462073326114,0.19463294744491577,0.1961752027273178,0.19586674869060516,0.19524984061717987,0.19802591204643247,0.1927822381258011,0.19154842197895047,0.18815545737743375,0.1850709468126297,0.18568783998489374,0.19833436608314514,0.206354096531868,0.2156076431274414,0.22115977108478546,0.23719926178455356,0.2319555878639221,0.2446020990610122,0.24552744626998896,0.22763726115226746,0.1974090039730072,0.1992597132921219,0.1850709468126297,0.18630474805831906,0.17304132878780365,0.17489203810691833,0.17489203810691833,0.1804441660642624,0.17643429338932035,0.1702652722597122,0.1369525045156479,0.0752621814608574,0.2464528083801269,0.40777298808097845,0.8507094383239745,0.8803207874298093,0.3392967283725738,0.044108573347330086,0.03639728575944901,0.055212832987308495,0.11443553119897842,0.1526835262775421,0.179210364818573,0.19370758533477786,0.2026526778936386,0.2091301679611206,0.21036396920680997,0.21529920399188995,0.21468229591846466,0.2156076431274414,0.22115977108478546,0.2202344238758087,0.22424429655075076,0.0,0.0,0.0,0.0,0.0,0.0,0.0,0.0,0.0,0.0,0.0,0.0,0.0,0.0,0.0,0.0,0.0,0.0,0.0,0.0,0.0,0.0,0.0,0.0,0.0,0.0,0.0,0.0,0.0,0.0,0.0,0.0,0.0,0.0,0.0,0.0,0.0,0.0,0.0,0.0,0.0,0.0,0.0,0.0,0.0,0.0,0.0,0.0,0.0,0.0,0.0,0.0,0.0,0.0,0.0,0.0,0.0,0.0,0.0,0.0,0.0,0.0,normal
0.9186992049217224,0.5040650367736815,0.11339323967695235,0.08771929889917374,0.1026957631111145,0.06718014180660249,0.03551561757922172,0.028669234365224838,0.01797175779938698,0.01925545558333397,0.02267864719033241,0.028669234365224838,0.0218228492885828,0.024818142876029008,0.018827557563781735,0.02738553658127785,0.032948225736618035,0.04278990253806113,0.045357294380664825,0.048352587968111045,0.06118955835700035,0.06846383959054947,0.06803594529628754,0.07702182233333588,0.08472400158643723,0.09798887372016907,0.0830124095082283,0.09328198432922366,0.1163885295391083,0.11767222732305528,0.1364997923374176,0.15233205258846283,0.16431322693824768,0.18100129067897797,0.18356867134571075,0.18613606691360476,0.1916987597942352,0.1981172412633896,0.1822849810123444,0.1587505340576172,0.14890885353088376,0.11981172114610672,0.10997004806995392,0.08900299668312073,0.07060334086418152,0.06931964308023451,0.06461275368928909,0.06589645147323607,0.0534873753786087,0.057338468730449677,0.06033376231789589,0.059477962553501136,0.06418485194444656,0.06675224751234056,0.06118955835700035,0.06632434576749802,0.0744544267654419,0.06846383959054947,0.067608043551445,0.07103123515844344,0.07188703119754793,0.07573812454938889,0.07060334086418152,0.0633290559053421,0.05905006453394891,0.071459136903286,0.05819426476955414,0.05091998353600503,0.04792468994855881,0.048352587968111045,0.050492085516452796,0.036799315363168716,0.050492085516452796,0.044073600322008126,0.047496791929006583,0.03722721338272095,0.03979460895061492,0.03936671093106269,0.045357294380664825,0.048352587968111045,0.05263157933950424,0.045357294380664825,0.04706889018416404,0.048352587968111045,0.045785196125507355,0.043217800557613366,0.04621309414505959,0.043217800557613366,0.05305947735905647,0.06076166033744813,0.05177577957510948,0.049636285752058015,0.048352587968111045,0.0436456985771656,0.03979460895061492,0.059477962553501136,0.09456568211317061,0.10055626928806305,0.11339323967695235,0.1125374436378479,0.12836970388889313,0.1433461755514145,0.12879760563373566,0.10055626928806305,0.0744544267654419,0.048352587968111045,0.030380830168724064,0.01711595989763737,0.023962344974279404,0.025246042758226398,0.02096705138683319,0.01497646514326334,0.013692768290638925,0.015832263976335526,0.0,0.03252032399177551,0.1929824501276016,0.6854942440986633,1.0,0.5819426774978638,0.17501069605350492,0.10397946089506148,0.12580230832099912,0.08900299668312073,0.06290115416049956,0.04664099216461181,0.048352587968111045,0.05091998353600503,0.047496791929006583,0.05562687292695045,0.05691057071089745,0.05905006453394891,0.056054770946502686,0.06589645147323607,0.06418485194444656,0.07231493294239043,0.06846383959054947,0.07830552011728287,0.08386820554733276,0.07616602629423141,0.07659392058849333,0.0,0.0,0.0,0.0,0.0,0.0,0.0,0.0,0.0,0.0,0.0,0.0,0.0,0.0,0.0,0.0,0.0,0.0,0.0,0.0,0.0,0.0,0.0,0.0,0.0,0.0,0.0,0.0,0.0,0.0,0.0,0.0,0.0,0.0,0.0,0.0,0.0,0.0,0.0,0.0,0.0,0.0,0.0,0.0,0.0,0.0,0.0,normal
1.0,0.6375790238380431,0.1548371464014053,0.06198346987366676,0.08896451443433762,0.08337384462356567,0.0651434138417244,0.05736509338021279,0.06003889068961145,0.06003889068961145,0.06660185009241104,0.06368497759103775,0.0663587749004364,0.07535245269536972,0.07438016682863235,0.07802625000476836,0.08070004731416702,0.08434613794088364,0.0940690338611603,0.0972289741039276,0.10379192978143692,0.1042780727148056,0.1084103062748909,0.12105007469654082,0.1290714591741562,0.1429265886545181,0.1548371464014053,0.1711229979991913,0.19251336157321927,0.21025764942169187,0.233592614531517,0.24793387949466705,0.2673796713352203,0.28949928283691406,0.2800194323062897,0.2666504681110382,0.23189111053943634,0.1995624750852585,0.163587749004364,0.12834224104881284,0.10233349353075027,0.080456979572773,0.06708799302577972,0.06198346987366676,0.05469129979610444,0.05517744272947312,0.04958677664399147,0.051045212894678116,0.05833738297224045,0.053232863545417786,0.05663587898015975,0.05614973232150078,0.05614973232150078,0.05955274775624275,0.05371900647878647,0.05517744272947312,0.055663589388132095,0.04958677664399147,0.05226057395339012,0.04837141558527946,0.0473991259932518,0.047156050801277154,0.046183761209249496,0.046183761209249496,0.03962080553174019,0.043753039091825485,0.03889159113168717,0.03767622634768486,0.03694701194763184,0.03062712773680687,0.030384054407477375,0.026737967506051067,0.026737967506051067,0.02649489603936672,0.02163344621658325,0.024550316855311397,0.018959650769829757,0.01993194036185741,0.022362664341926575,0.013125911355018616,0.01579970866441727,0.015070491470396519,0.012882838957011698,0.025279533118009567,0.01652892492711544,0.02989790961146355,0.03330092504620552,0.03135634586215019,0.04035002365708351,0.046183761209249496,0.038648515939712524,0.02989790961146355,0.028196401894092556,0.029168691486120224,0.018716577440500256,0.004618376493453979,0.007292172871530056,0.003646086435765028,0.00826446246355772,0.00048614488332532346,0.007292172871530056,0.008507534861564636,0.008993679657578467,0.0143412733450532,0.010452114976942541,0.003159941639751196,0.0,0.24696159362792966,0.5760816931724548,0.894749641418457,0.9273213148117064,0.4961108267307283,0.08385998755693436,0.03597471863031387,0.05858045816421509,0.04569761827588081,0.03646086528897285,0.02989790961146355,0.031842488795518875,0.02989790961146355,0.03524550423026085,0.038405444473028176,0.038648515939712524,0.041079241782426834,0.03986388072371482,0.046669907867908485,0.047156050801277154,0.051045212894678116,0.06003889068961145,0.05882352963089942,0.0687894970178604,0.07778318226337434,0.0836169198155403,0.09674283117055894,0.09893047809600831,0.1149732619524002,0.0,0.0,0.0,0.0,0.0,0.0,0.0,0.0,0.0,0.0,0.0,0.0,0.0,0.0,0.0,0.0,0.0,0.0,0.0,0.0,0.0,0.0,0.0,0.0,0.0,0.0,0.0,0.0,0.0,0.0,0.0,0.0,0.0,0.0,0.0,0.0,0.0,0.0,0.0,0.0,0.0,0.0,0.0,0.0,0.0,0.0,0.0,0.0,0.0,0.0,0.0,0.0,normal
0.9961718320846558,0.8192258477210999,0.39430031180381775,0.19013185799121854,0.005529562011361121,0.0,0.0655040442943573,0.10548702627420424,0.11186729371547699,0.12037430703639986,0.1331348419189453,0.1386643946170807,0.14717142283916473,0.15908123552799225,0.1650361567735672,0.17524456977844238,0.18757975101470947,0.18800510466098785,0.19438536465168,0.1986388713121414,0.20076562464237213,0.20459379255771643,0.20757125318050385,0.21905572712421414,0.23139089345932004,0.25010633468627924,0.2594640552997589,0.2747766971588135,0.28753721714019775,0.3113568723201752,0.3385793268680572,0.3653764426708221,0.3670778274536133,0.3653764426708221,0.36282432079315197,0.3560187220573425,0.3287962675094604,0.286686509847641,0.2598893940448761,0.2305402010679245,0.19948957860469818,0.18800510466098785,0.18332624435424802,0.17524456977844238,0.16843895614147186,0.15950658917427063,0.16120800375938416,0.1675882637500763,0.16588686406612396,0.16163334250450134,0.15440237522125244,0.15185028314590454,0.14972351491451266,0.1527009755373001,0.159931942820549,0.15950658917427063,0.15780518949031827,0.1620586961507797,0.15823054313659668,0.1531263291835785,0.14632071554660797,0.15652914345264435,0.1620586961507797,0.1650361567735672,0.1701403707265854,0.1786473840475082,0.17907273769378662,0.17992343008518216,0.18247553706169128,0.1892811506986618,0.18587835133075714,0.1807741373777389,0.17141641676425934,0.1680136173963547,0.16418544948101044,0.159931942820549,0.16120800375938416,0.1646108031272888,0.1603572964668274,0.16673755645751953,0.17099106311798096,0.16886430978775024,0.1765206307172775,0.169715017080307,0.1624840497970581,0.1629094034433365,0.1692896634340286,0.16333475708961484,0.1646108031272888,0.1620586961507797,0.16120800375938416,0.17269247770309448,0.17566992342472076,0.17099106311798096,0.17481923103332517,0.18715439736843106,0.20629519224166873,0.2250106334686279,0.23777116835117346,0.2722245752811432,0.2752020359039306,0.2892386317253113,0.2909400165081024,0.2726499438285828,0.24712887406349185,0.24712887406349185,0.2241599261760712,0.1650361567735672,0.14164185523986814,0.12547852098941803,0.11441939324140547,0.11016588658094406,0.11314333975315093,0.11909825354814528,0.10208421945571901,0.1139940470457077,0.20331773161888123,0.5742237567901612,1.0,0.9298170804977418,0.576775848865509,0.2666950225830078,0.09102509915828703,0.016163334250450134,0.09315185248851775,0.1433432549238205,0.15695448219776154,0.16631220281124115,0.16588686406612396,0.1675882637500763,0.1722671240568161,0.17566992342472076,0.17822203040122983,0.1837515980005264,0.18843045830726626,0.19055721163749692,0.2020416855812073,0.20799659192562106,0.2271373867988586,0.24245002865791326,0.2492556422948837,0.25818800926208496,0.2722245752811432,0.29264143109321594,0.3066779971122742,0.0,0.0,0.0,0.0,0.0,0.0,0.0,0.0,0.0,0.0,0.0,0.0,0.0,0.0,0.0,0.0,0.0,0.0,0.0,0.0,0.0,0.0,0.0,0.0,0.0,0.0,0.0,0.0,0.0,0.0,0.0,0.0,0.0,0.0,0.0,0.0,0.0,0.0,0.0,0.0,0.0,0.0,0.0,normal
1.0,0.7640990614891053,0.25515818595886236,0.0,0.13961485028266904,0.3507565259933472,0.3844566643238068,0.3170563876628876,0.2943603992462158,0.29917469620704645,0.3122420907020569,0.3204951882362366,0.33562585711479187,0.3507565259933472,0.35350757837295527,0.3555708527565002,0.3844566643238068,0.39202201366424566,0.3872077167034149,0.4119669795036316,0.4202200770378112,0.4635488390922546,0.4938101768493652,0.5123796463012695,0.5508940815925598,0.5488308072090149,0.5790921449661256,0.6052269339561462,0.6059147119522095,0.6121045351028442,0.6176065802574158,0.6203576326370239,0.5866575241088868,0.5412654876708985,0.535763382911682,0.4621733129024506,0.4436038434505463,0.4105914831161499,0.3927097618579865,0.3720770180225372,0.36795046925544733,0.3651994466781616,0.37757909297943115,0.3541953265666962,0.3507565259933472,0.33837687969207764,0.3431912064552307,0.36588719487190247,0.3617606461048127,0.354883074760437,0.3459422290325165,0.3541953265666962,0.36932599544525146,0.3507565259933472,0.38514444231987,0.4195323288440704,0.4587345123291016,0.473177433013916,0.4917469024658203,0.5034387707710266,0.5330123901367188,0.5281980633735658,0.5708390474319457,0.5110041499137878,0.4669876098632813,0.4277854263782501,0.3596973717212677,0.3280605375766754,0.2833562493324279,0.284731775522232,0.2909215986728668,0.2647868096828461,0.2647868096828461,0.2489683628082275,0.29986244440078735,0.3225584626197815,0.4821183085441588,0.8638239502906798,0.7290233969688416,0.30674001574516296,0.0020632736850529905,0.1114167794585228,0.24552957713603976,0.37276479601860046,0.3012379705905914,0.2792297005653381,0.2840440273284912,0.3108665645122528,0.28610730171203613,0.3039889931678772,0.32324621081352234,0.3280605375766754,0.35213205218315125,0.354883074760437,0.0,0.0,0.0,0.0,0.0,0.0,0.0,0.0,0.0,0.0,0.0,0.0,0.0,0.0,0.0,0.0,0.0,0.0,0.0,0.0,0.0,0.0,0.0,0.0,0.0,0.0,0.0,0.0,0.0,0.0,0.0,0.0,0.0,0.0,0.0,0.0,0.0,0.0,0.0,0.0,0.0,0.0,0.0,0.0,0.0,0.0,0.0,0.0,0.0,0.0,0.0,0.0,0.0,0.0,0.0,0.0,0.0,0.0,0.0,0.0,0.0,0.0,0.0,0.0,0.0,0.0,0.0,0.0,0.0,0.0,0.0,0.0,0.0,0.0,0.0,0.0,0.0,0.0,0.0,0.0,0.0,0.0,0.0,0.0,0.0,0.0,0.0,0.0,0.0,0.0,0.0,0.0,0.0,0.0,normal
1.0,0.39700749516487116,0.05286782979965209,0.0,0.06683291494846344,0.19950124621391296,0.2254364043474197,0.24389027059078214,0.2773067355155945,0.2837905287742615,0.2942643463611602,0.30224439501762396,0.29725685715675354,0.30972567200660706,0.309226930141449,0.31221944093704224,0.3102244436740875,0.3112219572067261,0.3211970031261444,0.3306733071804046,0.32917705178260803,0.33516210317611694,0.34413966536521917,0.34413966536521917,0.34763091802597046,0.348628431558609,0.34962594509124756,0.3625935018062592,0.4000000059604645,0.41197007894515997,0.44289276003837597,0.4698254466056825,0.5002493858337402,0.5117207169532776,0.5396508574485779,0.5526184439659119,0.5770573616027832,0.5850374102592468,0.5700747966766356,0.5571072101593018,0.501745641231537,0.4613466262817384,0.41197007894515997,0.374563604593277,0.3411471247673034,0.32668328285217285,0.30074813961982727,0.29925188422203064,0.29077306389808655,0.2997506260871888,0.29875311255455017,0.3042393922805786,0.309226930141449,0.31620946526527405,0.3221945166587829,0.3366583585739136,0.33915212750434875,0.3396508693695068,0.3401496112346649,0.3316708207130432,0.3326683342456818,0.31620946526527405,0.3187032341957092,0.31820449233055115,0.32418951392173767,0.31571072340011597,0.30324190855026245,0.3002493679523468,0.2877805531024933,0.28528678417205805,0.2837905287742615,0.29077306389808655,0.2877805531024933,0.29127180576324463,0.2802992463111877,0.283291757106781,0.2847880423069,0.2872817814350128,0.2877805531024933,0.2847880423069,0.2743142247200012,0.2807980179786682,0.2703242003917694,0.2728179693222046,0.2613466382026672,0.2807980179786682,0.2663341760635376,0.2628428936004638,0.2558603584766388,0.2628428936004638,0.2648378908634185,0.2598503828048706,0.2543641030788422,0.2568578422069549,0.2708229422569275,0.2678304314613342,0.278304249048233,0.29127180576324463,0.3002493679523468,0.32917705178260803,0.3331670761108398,0.35062342882156367,0.374563604593277,0.3900249302387238,0.35860347747802734,0.317705750465393,0.2628428936004638,0.2533665895462036,0.2558603584766388,0.2693266868591308,0.26184538006782526,0.2693266868591308,0.2638404071331024,0.25785535573959356,0.2508728206157685,0.2563591003417969,0.2568578422069549,0.252369076013565,0.23890274763107294,0.23790523409843445,0.34563592076301575,0.35760599374771124,0.5012468695640564,0.9571072459220888,0.8294264078140257,0.2743142247200012,0.011970074847340584,0.017456358298659325,0.14214463531970975,0.2009975016117096,0.2124688327312469,0.22892768681049344,0.247880294919014,0.26533666253089905,0.26982542872428894,0.2758104801177978,0.2837905287742615,0.2743142247200012,0.289775550365448,0.289775550365448,0.28578552603721613,0.3042393922805786,0.31321695446968073,0.3197007477283478,0.335660845041275,0.3371571004390716,0.3381546139717102,0.0,0.0,0.0,0.0,0.0,0.0,0.0,0.0,0.0,0.0,0.0,0.0,0.0,0.0,0.0,0.0,0.0,0.0,0.0,0.0,0.0,0.0,0.0,0.0,0.0,0.0,0.0,0.0,0.0,0.0,0.0,0.0,0.0,0.0,0.0,0.0,0.0,0.0,0.0,0.0,0.0,normal
0.9797480702400208,0.998518168926239,0.5650777816772461,0.32724130153656006,0.18770067393779757,0.2156087905168533,0.2284514755010605,0.22153617441654205,0.22030131518840787,0.2222771048545837,0.2252407968044281,0.2269696295261383,0.22968634963035586,0.23413188755512235,0.23586070537567136,0.23808348178863525,0.24178808927536005,0.24969127774238584,0.2571005225181579,0.2617930471897125,0.26796740293502813,0.2788342833518982,0.2919239401817322,0.30328476428985596,0.3178562521934509,0.3366263210773468,0.35070386528968805,0.3665102422237396,0.37910595536232,0.3941713869571686,0.4020745754241943,0.40874290466308594,0.410718709230423,0.4023215472698212,0.3771301507949829,0.34601137042045593,0.31143492460250854,0.2837737798690796,0.2612990736961365,0.2447517961263657,0.23437885940074915,0.2269696295261383,0.2227710485458374,0.22326500713825223,0.2212892025709152,0.22203013300895688,0.2207952588796616,0.22030131518840787,0.22178316116333008,0.22030131518840787,0.2227710485458374,0.22425289452075964,0.2222771048545837,0.22499382495880127,0.2269696295261383,0.2284514755010605,0.2304272651672363,0.227463573217392,0.2262286990880966,0.22252407670021054,0.2227710485458374,0.2195603847503662,0.22203013300895688,0.22400592267513278,0.22203013300895688,0.22252407670021054,0.2207952588796616,0.21980735659599301,0.2212892025709152,0.22005432844161987,0.21931341290473935,0.22054828703403473,0.21684366464614868,0.21980735659599301,0.21733760833740237,0.2153618186712265,0.21659669280052185,0.21585576236248016,0.21511484682559967,0.2148678749799728,0.21264509856700894,0.21684366464614868,0.2279575169086456,0.2464806139469147,0.25635960698127747,0.2561126351356506,0.2630279064178467,0.28155100345611567,0.2803161144256592,0.29735738039016724,0.2766115069389343,0.2519140541553497,0.21931341290473935,0.20844653248786926,0.20424796640872958,0.19930846989154813,0.1998024135828018,0.19782662391662598,0.19510990381240845,0.1958508342504501,0.19733268022537231,0.19757965207099917,0.19782662391662598,0.19832056760787964,0.184736967086792,0.08298344910144807,0.0,0.2383304536342621,0.5761916637420655,1.0,0.9644356369972226,0.5542109012603759,0.32724130153656006,0.19634477794170374,0.2257347553968429,0.23709557950496676,0.2336379289627075,0.22919239103794095,0.2284514755010605,0.2304272651672363,0.23265004158020014,0.23339095711708066,0.23462583124637604,0.23981229960918424,0.2415411174297333,0.2484564036130905,0.2533959150314331,0.0,0.0,0.0,0.0,0.0,0.0,0.0,0.0,0.0,0.0,0.0,0.0,0.0,0.0,0.0,0.0,0.0,0.0,0.0,0.0,0.0,0.0,0.0,0.0,0.0,0.0,0.0,0.0,0.0,0.0,0.0,0.0,0.0,0.0,0.0,0.0,0.0,0.0,0.0,0.0,0.0,0.0,0.0,0.0,0.0,0.0,0.0,0.0,0.0,0.0,0.0,0.0,0.0,0.0,0.0,0.0,0.0,0.0,0.0,0.0,0.0,normal
1.0,0.6648613810539246,0.41724437475204473,0.22162045538425443,0.198440209031105,0.22443674504756927,0.22746966779232025,0.2205372601747513,0.2209705412387848,0.22162045538425443,0.2248700112104416,0.22530329227447504,0.22681975364685056,0.22985269129276276,0.23613518476486206,0.23765164613723755,0.2404679358005524,0.2476169914007187,0.25454938411712646,0.25693240761756897,0.2666811048984528,0.27404680848121643,0.28812825679779047,0.3019930720329285,0.3152079582214356,0.32972270250320435,0.3472703695297241,0.36503466963768005,0.3745667338371277,0.38279896974563593,0.3890814483165741,0.3951473236083984,0.3890814483165741,0.3674176633358002,0.340121328830719,0.3102253079414368,0.28206238150596613,0.2584488689899444,0.2456672489643097,0.2350519895553589,0.2259532064199448,0.2218370884656906,0.21923743188381198,0.21815425157547003,0.21750433743000033,0.21945407986640927,0.2168544232845306,0.21858751773834229,0.2222703695297241,0.22118717432022092,0.21923743188381198,0.21902079880237574,0.21880416572093964,0.2205372601747513,0.2209705412387848,0.22118717432022092,0.22118717432022092,0.22162045538425443,0.21815425157547003,0.21945407986640927,0.21880416572093964,0.21945407986640927,0.21945407986640927,0.21837088465690607,0.2179376035928726,0.21707105636596677,0.21447139978408813,0.2133882194757461,0.2138214856386185,0.21208839118480677,0.21187174320220947,0.21208839118480677,0.20992201566696167,0.20992201566696167,0.2064558118581772,0.21013864874839783,0.20992201566696167,0.21035528182983398,0.20905545353889465,0.21837088465690607,0.2339688092470169,0.2409012168645859,0.2467504292726517,0.2474003434181213,0.2573656737804413,0.2655979096889496,0.2729636132717132,0.2571490406990051,0.2467504292726517,0.21858751773834229,0.203422874212265,0.20060658454895014,0.19605718553066254,0.19215771555900574,0.18999134004116058,0.18609185516834256,0.1837088316679001,0.18435874581336972,0.18349219858646393,0.1830589324235916,0.18435874581336972,0.18479202687740323,0.12846620380878448,0.0,0.15099653601646426,0.41312825679779047,0.7768630981445312,0.987434983253479,0.5834055542945861,0.36958405375480646,0.18977469205856323,0.2025563269853592,0.2205372601747513,0.21707105636596677,0.21447139978408813,0.21577122807502744,0.2168544232845306,0.22010397911071775,0.2209705412387848,0.22443674504756927,0.22746966779232025,0.2296360433101654,0.23288561403751376,0.2363518178462982,0.24306759238243106,0.24870017170906064,0.2571490406990051,0.0,0.0,0.0,0.0,0.0,0.0,0.0,0.0,0.0,0.0,0.0,0.0,0.0,0.0,0.0,0.0,0.0,0.0,0.0,0.0,0.0,0.0,0.0,0.0,0.0,0.0,0.0,0.0,0.0,0.0,0.0,0.0,0.0,0.0,0.0,0.0,0.0,0.0,0.0,0.0,0.0,0.0,0.0,0.0,0.0,0.0,0.0,0.0,0.0,0.0,0.0,0.0,0.0,0.0,0.0,0.0,0.0,0.0,0.0,0.0,0.0,normal
1.0,0.890307128429413,0.4411647319793701,0.1727163940668106,0.09254088252782819,0.08256880939006804,0.09413641691207884,0.08895093947649,0.07937774062156677,0.0797766223549843,0.08216992765665054,0.08974870294332504,0.09772636741399762,0.09852413088083267,0.09293977171182631,0.0965297147631645,0.10131631791591646,0.11408057808876035,0.12405265122652052,0.13482250273227694,0.14718787372112274,0.1695253252983093,0.1938571929931641,0.21300359070301053,0.2353410422801972,0.2536896765232086,0.28280812501907343,0.3039489388465881,0.3107299506664276,0.30674111843109125,0.2883925139904023,0.2532907724380493,0.21818907558918,0.1842840015888214,0.15755882859230042,0.13881133496761322,0.12564818561077118,0.1152772232890129,0.10610291361808777,0.103310726583004,0.09413641691207884,0.08655764162540434,0.08256880939006804,0.09254088252782819,0.09413641691207884,0.08934982120990753,0.09094535559415816,0.09254088252782819,0.08974870294332504,0.08655764162540434,0.08815316855907442,0.08256880939006804,0.07897885888814926,0.08456322550773619,0.08456322550773619,0.09094535559415816,0.09533306956291199,0.10251296311616896,0.11727163940668105,0.1304347813129425,0.13681691884994504,0.15596330165863037,0.16593538224697113,0.19505384564399716,0.21659353375434878,0.20821699500083923,0.17471081018447876,0.11687275767326358,0.08655764162540434,0.06701236218214035,0.05983246862888335,0.057040289044380174,0.0498603917658329,0.0534503385424614,0.04866374284029008,0.0,0.005584363825619221,0.2034303992986679,0.619066596031189,0.965696036815643,0.9648982882499696,0.5368967056274413,0.2014359831809997,0.0921420007944107,0.0797766223549843,0.08496210724115373,0.07818109542131424,0.07538890838623047,0.07897885888814926,0.08496210724115373,0.08775428682565689,0.08575987070798875,0.09692859649658203,0.1041084975004196,0.1065017953515053,0.11248504370450972,0.0,0.0,0.0,0.0,0.0,0.0,0.0,0.0,0.0,0.0,0.0,0.0,0.0,0.0,0.0,0.0,0.0,0.0,0.0,0.0,0.0,0.0,0.0,0.0,0.0,0.0,0.0,0.0,0.0,0.0,0.0,0.0,0.0,0.0,0.0,0.0,0.0,0.0,0.0,0.0,0.0,0.0,0.0,0.0,0.0,0.0,0.0,0.0,0.0,0.0,0.0,0.0,0.0,0.0,0.0,0.0,0.0,0.0,0.0,0.0,0.0,0.0,0.0,0.0,0.0,0.0,0.0,0.0,0.0,0.0,0.0,0.0,0.0,0.0,0.0,0.0,0.0,0.0,0.0,0.0,0.0,0.0,0.0,0.0,0.0,0.0,0.0,0.0,0.0,0.0,0.0,0.0,normal
1.0,0.7642966508865356,0.21941286325454712,0.0,0.04327167943120003,0.10537926107645033,0.1164093017578125,0.10775496065616608,0.1079246550798416,0.11114881932735443,0.1174274533987045,0.11895468831062317,0.1255727112293243,0.13269981741905212,0.13286951184272766,0.1343967467546463,0.1438995450735092,0.1510266363620758,0.15883252024650574,0.17054131627082822,0.18428644537925723,0.19854064285755163,0.21669778227806089,0.24113354086875916,0.2696419358253479,0.29170203208923334,0.31359240412712097,0.3302223086357117,0.33904632925987244,0.349058210849762,0.33463430404663086,0.30391991138458246,0.2660784125328064,0.2228067219257355,0.1871712207794189,0.15696589648723602,0.13745121657848358,0.12065161764621735,0.10996097326278687,0.10860342532396317,0.10453079640865326,0.10402172058820723,0.1047004908323288,0.09757339209318158,0.09944001585245132,0.09910062700510024,0.1002884805202484,0.10147632658481599,0.10503987967967987,0.10945188999176024,0.10690649598836899,0.1079246550798416,0.10928219556808473,0.10911250859498976,0.1123366728425026,0.1052095741033554,0.10487018525600432,0.10758527368307112,0.1047004908323288,0.1047004908323288,0.10436110943555833,0.10045816749334337,0.09672492742538451,0.09333106875419615,0.0962158516049385,0.09536738693714142,0.09638553857803343,0.09502799808979034,0.09384015202522276,0.09248260408639908,0.0880705937743187,0.08705243468284608,0.08925843983888626,0.08976752310991286,0.09282199293375015,0.09078567475080489,0.09129475802183153,0.09129475802183153,0.09095536917448045,0.09587646275758743,0.09367045760154724,0.09333106875419615,0.09417953342199326,0.09027659893035889,0.09282199293375015,0.09197352826595305,0.09417953342199326,0.09180383384227753,0.09078567475080489,0.09400983899831772,0.09451892226934434,0.09468861669301985,0.09027659893035889,0.09095536917448045,0.09468861669301985,0.09061598777770996,0.08959782868623732,0.09265229851007459,0.09061598777770996,0.08840997517108916,0.08959782868623732,0.09197352826595305,0.10181571543216704,0.10996097326278687,0.13134227693080905,0.1204819306731224,0.12472424656152725,0.13083319365978244,0.11573052406311038,0.11488206684589385,0.1191243827342987,0.09570676833391188,0.09129475802183153,0.09010690450668338,0.08773120492696761,0.08688274025917052,0.08603427559137344,0.08484642952680588,0.08264042437076567,0.08688274025917052,0.07636178284883499,0.03342949226498604,0.06923468410968782,0.2575937509536743,0.5985066890716553,0.9960970878601076,0.7771933078765869,0.2462243288755417,0.02036314271390438,0.05209570750594139,0.1087731197476387,0.1196334660053253,0.11708807200193405,0.1159002184867859,0.1181062310934067,0.0,0.0,0.0,0.0,0.0,0.0,0.0,0.0,0.0,0.0,0.0,0.0,0.0,0.0,0.0,0.0,0.0,0.0,0.0,0.0,0.0,0.0,0.0,0.0,0.0,0.0,0.0,0.0,0.0,0.0,0.0,0.0,0.0,0.0,0.0,0.0,0.0,0.0,0.0,0.0,0.0,0.0,0.0,0.0,0.0,0.0,0.0,0.0,0.0,0.0,0.0,0.0,0.0,normal
0.9626044631004332,0.8732951879501343,0.5239771008491516,0.239771232008934,0.0,0.1421029418706894,0.22965243458747864,0.29652440547943115,0.28860536217689514,0.3000440001487732,0.3216014206409454,0.30928289890289307,0.33040034770965576,0.33040034770965576,0.3400791883468628,0.3550373911857605,0.34139904379844666,0.3567971885204315,0.35195776820182795,0.3589969277381897,0.3743950724601746,0.3576770722866058,0.3757149279117584,0.37131544947624207,0.3757149279117584,0.3959524929523468,0.3805543482303619,0.4161900579929351,0.42498901486396795,0.4351077973842621,0.4359876811504364,0.38935327529907227,0.380994290113449,0.3449186086654663,0.3334799706935882,0.3361196517944336,0.3088429272174835,0.32292124629020685,0.307523101568222,0.30400350689888,0.32072150707244873,0.30356356501579285,0.3185217678546905,0.31368234753608704,0.3141223192214966,0.3361196517944336,0.33655962347984314,0.3787945508956909,0.396392434835434,0.39947205781936646,0.4474263191223145,0.4505059421062469,0.44962605834007263,0.4764628112316131,0.4557853043079376,0.4390673041343689,0.398592174053192,0.3603167533874512,0.32292124629020685,0.30444347858428955,0.30620324611663813,0.2837659418582916,0.2908051013946533,0.2820061445236206,0.27496701478958124,0.28816542029380804,0.2683677971363068,0.2780466377735138,0.27496701478958124,0.3185217678546905,0.5868895649909972,1.0,0.8306203484535218,0.4865816235542296,0.17905850708484647,0.029036516323685643,0.14650242030620572,0.26660799980163574,0.2982842028141022,0.2991640865802765,0.32468104362487793,0.3172019422054291,0.3339199423789978,0.334359884262085,0.0,0.0,0.0,0.0,0.0,0.0,0.0,0.0,0.0,0.0,0.0,0.0,0.0,0.0,0.0,0.0,0.0,0.0,0.0,0.0,0.0,0.0,0.0,0.0,0.0,0.0,0.0,0.0,0.0,0.0,0.0,0.0,0.0,0.0,0.0,0.0,0.0,0.0,0.0,0.0,0.0,0.0,0.0,0.0,0.0,0.0,0.0,0.0,0.0,0.0,0.0,0.0,0.0,0.0,0.0,0.0,0.0,0.0,0.0,0.0,0.0,0.0,0.0,0.0,0.0,0.0,0.0,0.0,0.0,0.0,0.0,0.0,0.0,0.0,0.0,0.0,0.0,0.0,0.0,0.0,0.0,0.0,0.0,0.0,0.0,0.0,0.0,0.0,0.0,0.0,0.0,0.0,0.0,0.0,0.0,0.0,0.0,0.0,0.0,0.0,0.0,0.0,0.0,0.0,normal
1.0,0.9297433495521544,0.4509886503219604,0.1430374383926392,0.053428690880537026,0.034076567739248276,0.0357593595981598,0.03197307512164116,0.038704250007867806,0.029028186574578282,0.03449726477265357,0.032814472913742065,0.03828354924917221,0.0509045012295246,0.06478754431009293,0.0715187191963196,0.07951199263334273,0.0879259556531906,0.10138830542564392,0.11695414036512375,0.13294067978858948,0.15902398526668549,0.17963819205760959,0.20530079305171967,0.23054270446300504,0.24610854685306546,0.2751367390155792,0.2936474680900574,0.31384098529815674,0.30332350730896,0.2747160196304321,0.2254943251609802,0.1754312217235565,0.1430374383926392,0.11485065519809723,0.0862431600689888,0.07740850001573561,0.0622633583843708,0.05300799384713173,0.052587293088436134,0.054270088672637946,0.055111486464738846,0.0626840591430664,0.06562894582748413,0.06604964286088945,0.07404290884733199,0.08203618228435518,0.0862431600689888,0.08329827338457108,0.08456037193536757,0.08750525861978531,0.09002944827079774,0.09423643350601198,0.09129154682159424,0.0883466526865959,0.09423643350601198,0.09297433495521544,0.08750525861978531,0.08329827338457108,0.08245687931776047,0.0849810689687729,0.09381573647260666,0.09171224385499954,0.09423643350601198,0.10517458617687224,0.1123264655470848,0.12410601228475568,0.14219604432582855,0.16365166008472443,0.1619688719511032,0.1724863201379776,0.2048801034688949,0.20908708870410916,0.20403870940208435,0.17038284242153168,0.11737484484910968,0.09002944827079774,0.07278081774711609,0.059318467974662774,0.053849391639232635,0.046697519719600684,0.05300799384713173,0.052166596055030816,0.018090030178427696,0.0025241901166737084,0.1724863201379776,0.5835086107254028,0.9554059505462644,0.9903239607810974,0.5738325715065002,0.18889355659484866,0.034076567739248276,0.0,0.0025241901166737084,0.0,0.004206983372569084,0.007572570350021122,0.0025241901166737084,0.01472444273531437,0.0155658395960927,0.017248632386326786,0.023138409480452538,0.0,0.0,0.0,0.0,0.0,0.0,0.0,0.0,0.0,0.0,0.0,0.0,0.0,0.0,0.0,0.0,0.0,0.0,0.0,0.0,0.0,0.0,0.0,0.0,0.0,0.0,0.0,0.0,0.0,0.0,0.0,0.0,0.0,0.0,0.0,0.0,0.0,0.0,0.0,0.0,0.0,0.0,0.0,0.0,0.0,0.0,0.0,0.0,0.0,0.0,0.0,0.0,0.0,0.0,0.0,0.0,0.0,0.0,0.0,0.0,0.0,0.0,0.0,0.0,0.0,0.0,0.0,0.0,0.0,0.0,0.0,0.0,0.0,0.0,0.0,0.0,0.0,0.0,0.0,0.0,0.0,0.0,0.0,0.0,0.0,0.0,normal
1.0,0.6816578507423401,0.3977072238922119,0.06128747761249542,0.055996473878622055,0.1657848358154297,0.275573194026947,0.278218686580658,0.2989417910575866,0.30291005969047546,0.2940917015075684,0.315255731344223,0.3077601492404938,0.32275131344795227,0.329365074634552,0.31878307461738586,0.3403880000114441,0.3302469253540039,0.34082892537117004,0.3474426865577698,0.3395061790943146,0.3597883582115173,0.35185185074806213,0.369488537311554,0.3774250447750092,0.3712522089481354,0.40079364180564875,0.4038800597190857,0.43342152237892156,0.4453262686729431,0.4034391641616821,0.3880070447921753,0.34832450747489924,0.3390652537345886,0.3320105671882629,0.3046737313270569,0.315696656703949,0.29673722386360163,0.30423280596733093,0.30908289551734924,0.2914462089538574,0.3099647164344788,0.2936508059501648,0.3059964776039124,0.3161375522613525,0.3051146268844604,0.3253968358039856,0.3315696716308594,0.3686067163944244,0.4034391641616821,0.394620805978775,0.4378306865692138,0.43959435820579523,0.4268077611923218,0.4647266268730164,0.4307760000228882,0.4193121790885925,0.38580247759819036,0.33994710445404047,0.315255731344223,0.28659611940383906,0.2936508059501648,0.2746913433074951,0.27292770147323603,0.2764550149440765,0.25352734327316284,0.2716049253940582,0.2592592537403106,0.26146385073661804,0.28130510449409485,0.31657847762107844,0.556437373161316,0.9757495522499084,0.8377425074577332,0.5004408955574035,0.17283950746059418,0.0,0.1278659552335739,0.24470899999141696,0.29673722386360163,0.2830687761306762,0.30202820897102356,0.30555555224418635,0.3148148059844971,0.32980599999427795,0.31746032834053045,0.0,0.0,0.0,0.0,0.0,0.0,0.0,0.0,0.0,0.0,0.0,0.0,0.0,0.0,0.0,0.0,0.0,0.0,0.0,0.0,0.0,0.0,0.0,0.0,0.0,0.0,0.0,0.0,0.0,0.0,0.0,0.0,0.0,0.0,0.0,0.0,0.0,0.0,0.0,0.0,0.0,0.0,0.0,0.0,0.0,0.0,0.0,0.0,0.0,0.0,0.0,0.0,0.0,0.0,0.0,0.0,0.0,0.0,0.0,0.0,0.0,0.0,0.0,0.0,0.0,0.0,0.0,0.0,0.0,0.0,0.0,0.0,0.0,0.0,0.0,0.0,0.0,0.0,0.0,0.0,0.0,0.0,0.0,0.0,0.0,0.0,0.0,0.0,0.0,0.0,0.0,0.0,0.0,0.0,0.0,0.0,0.0,0.0,0.0,0.0,0.0,0.0,normal
1.0,0.8792347311973571,0.2785970568656921,0.03706656023859978,0.06337185949087144,0.133917897939682,0.126345157623291,0.1195695474743843,0.11119968444108964,0.10761259496212004,0.1100039854645729,0.10960542410612105,0.1167795956134796,0.11638102680444717,0.1195695474743843,0.12793941795825958,0.13072937726974487,0.1319250762462616,0.13551215827465057,0.13591071963310236,0.1426863223314285,0.1482662409543991,0.15504184365272516,0.1606217622756958,0.16779594123363495,0.17935432493686676,0.19449980556964877,0.20844958722591397,0.22518931329250336,0.252291738986969,0.2813870012760162,0.30809086561203,0.3391789495944976,0.3726584315299988,0.401753693819046,0.4332403242588044,0.44081306457519526,0.4157034754753113,0.36946991086006153,0.3128736615180969,0.2574731111526489,0.2092467099428177,0.16819450259208676,0.14707054197788239,0.13272219896316528,0.11917098611593248,0.11797528713941575,0.11319250613451005,0.11040255427360535,0.10920685529708862,0.11040255427360535,0.10482263565063475,0.1052212044596672,0.10322837531566621,0.1060183346271515,0.10801115632057189,0.10920685529708862,0.1108011156320572,0.11757672578096387,0.126345157623291,0.13312076032161713,0.12475089728832242,0.12275806814432146,0.12395376712083818,0.1215623766183853,0.12714228034019473,0.11917098611593248,0.1195695474743843,0.1159824654459953,0.11319250613451005,0.11438820511102675,0.11359107494354248,0.11040255427360535,0.11040255427360535,0.1072140261530876,0.10880828648805617,0.10322837531566621,0.10402550548315047,0.10003985464572905,0.09525707364082336,0.10243124514818193,0.0996412932872772,0.10282981395721437,0.1072140261530876,0.10282981395721437,0.12873655557632446,0.16022320091724399,0.1634117215871811,0.1673973649740219,0.1701873242855072,0.19011558592319489,0.1606217622756958,0.1442805826663971,0.13312076032161713,0.12873655557632446,0.11877241730690002,0.09685133397579193,0.09326425194740297,0.08728577196598053,0.07891590148210524,0.08290155231952666,0.08170586079359053,0.0833001211285591,0.08489438146352768,0.0833001211285591,0.08090873062610625,0.09366281330585478,0.08529294282197952,0.05858907848596572,0.0,0.10840972512960434,0.3001195788383484,0.8027102351188659,0.9549621343612672,0.5922678112983704,0.14388202130794525,0.061379034072160714,0.11119968444108964,0.17337584495544434,0.1462734192609787,0.14109206199646,0.1462734192609787,0.1418891996145248,0.13830211758613584,0.1406935006380081,0.1446791589260101,0.14507772028446195,0.14946193993091586,0.14667198061943051,0.1446791589260101,0.1542447209358215,0.15344758331775665,0.15743324160575864,0.1618174612522125,0.1654045432806015,0.0,0.0,0.0,0.0,0.0,0.0,0.0,0.0,0.0,0.0,0.0,0.0,0.0,0.0,0.0,0.0,0.0,0.0,0.0,0.0,0.0,0.0,0.0,0.0,0.0,0.0,0.0,0.0,0.0,0.0,0.0,0.0,0.0,0.0,0.0,0.0,0.0,0.0,0.0,0.0,0.0,0.0,0.0,0.0,0.0,0.0,0.0,0.0,0.0,0.0,0.0,0.0,0.0,normal
0.9370960593223572,0.9349418282508848,0.459284782409668,0.19905214011669156,0.09823352098464963,0.09478673338890076,0.09909521788358688,0.07367514073848724,0.06678155809640884,0.06290391832590103,0.06807410717010498,0.0693666487932205,0.06462731212377547,0.07022835314273833,0.07022835314273833,0.07195174694061279,0.07324428856372833,0.07755278050899506,0.08099956810474394,0.08315381407737732,0.08875484764575958,0.09694097191095354,0.10168030858039857,0.1077121943235397,0.11288237571716307,0.11848340928554538,0.1266695410013199,0.13485567271709442,0.14605773985385895,0.15769064426422116,0.17406290769577026,0.18741922080516812,0.2102542072534561,0.2292115539312362,0.2537699341773987,0.27703577280044556,0.3020249903202057,0.32529082894325256,0.3438173234462738,0.34769496321678156,0.34683325886726374,0.3235674202442169,0.2942697107791901,0.2485997378826141,0.20249892771244046,0.1611374467611313,0.12322274595499037,0.10340370237827298,0.08099956810474394,0.07022835314273833,0.052994400262832635,0.0482550635933876,0.04394657537341117,0.04437742382287979,0.040930632501840584,0.03877639025449753,0.0413614809513092,0.043515726923942566,0.04437742382287979,0.044808272272348404,0.043515726923942566,0.04566996917128562,0.04265403002500534,0.04437742382287979,0.04394657537341117,0.044808272272348404,0.04566996917128562,0.04437742382287979,0.04782421514391899,0.04523912072181702,0.04222317785024642,0.0413614809513092,0.04437742382287979,0.03877639025449753,0.034898750483989716,0.03274450823664665,0.03274450823664665,0.03274450823664665,0.03188280761241913,0.03403705358505249,0.032313656061887734,0.028866868466138836,0.02929771691560745,0.03274450823664665,0.030590262264013287,0.03274450823664665,0.03274450823664665,0.03188280761241913,0.03188280761241913,0.03317535668611527,0.02929771691560745,0.02972856536507606,0.03317535668611527,0.02843601815402508,0.02929771691560745,0.028866868466138836,0.024989228695631027,0.02972856536507606,0.032313656061887734,0.03619129583239555,0.03274450823664665,0.03274450823664665,0.03015941381454468,0.03274450823664665,0.03403705358505249,0.03015941381454468,0.02929771691560745,0.027574321255087846,0.03188280761241913,0.032313656061887734,0.032313656061887734,0.034898750483989716,0.03317535668611527,0.03532959893345833,0.03274450823664665,0.02929771691560745,0.02714347280561924,0.02714347280561924,0.03015941381454468,0.021542439237236977,0.0241275317966938,0.024989228695631027,0.02714347280561924,0.02972856536507606,0.03188280761241913,0.03317535668611527,0.02929771691560745,0.032313656061887734,0.032313656061887734,0.03360620513558388,0.044808272272348404,0.05213269963860512,0.05471779406070708,0.0654890164732933,0.07669108361005783,0.09177079051733017,0.10986644029617308,0.0861697569489479,0.07970702648162842,0.06807410717010498,0.05084015429019929,0.03532959893345833,0.031021110713481907,0.023696683347225186,0.014648858457803724,0.015510555356740953,0.016372254118323326,0.011632916517555712,0.009909521788358688,0.011632916517555712,0.0,0.013356312178075312,0.0861697569489479,0.19345109164714813,0.6984058618545532,1.0,0.7061611413955688,0.216716930270195,0.0822921171784401,0.0723825916647911,0.0827229619026184,0.05945713073015212,0.04739336669445037,0.040930632501840584,0.03748384490609168,0.036622144281864166,0.038345541805028915,0.040930632501840584,0.044808272272348404,0.04782421514391899,0.04868591204285622,0.05428694561123848,0.05601033940911292,0.061180524528026574,0.07022835314273833,0.06979750096797943,0.0792761743068695,0.0827229619026184,0.09263248741626738,0.0995260700583458,0.10598880052566527,0.11589831858873367,0.12796208262443542,0.13614821434020996,0.14993537962436676,0.16501508653163907,0.0,0.0,normal
0.9350935220718384,0.8962229490280151,0.6321965456008911,0.33333334326744074,0.10047671198844908,0.0,0.05207187309861184,0.11514484882354735,0.1100110039114952,0.10597726702690125,0.10451044887304305,0.11404474079608914,0.12027869373559953,0.12541253864765167,0.1349468231201172,0.13934727013111112,0.1463146358728409,0.1488815546035767,0.1562156230211258,0.1661166101694107,0.17235057055950162,0.18665200471878046,0.19435277581214905,0.20572057366371155,0.21305464208126068,0.2244224399328232,0.2412907928228378,0.25999265909194946,0.2772277295589447,0.29922991991043085,0.32856619358062744,0.35056838393211365,0.37257060408592224,0.3861386179924011,0.3982398211956025,0.4019068479537964,0.39970663189888,0.3813714683055878,0.3542354106903076,0.3193986117839813,0.28456178307533264,0.2442244291305542,0.21928860247135162,0.19508618116378784,0.18371836841106412,0.17051705718040466,0.15951594710350034,0.15254858136177063,0.14741474390029907,0.1466813385486603,0.14484782516956327,0.1419141888618469,0.14704804122447968,0.14778144657611847,0.14704804122447968,0.14741474390029907,0.1488815546035767,0.15511551499366757,0.15951594710350034,0.16061605513095856,0.15841583907604218,0.15841583907604218,0.15988264977931976,0.1602493524551392,0.1543821096420288,0.15218187868595123,0.1532820016145706,0.15181517601013186,0.14484782516956327,0.14704804122447968,0.14228089153766632,0.13934727013111112,0.13934727013111112,0.13824716210365295,0.13788045942783358,0.13531352579593656,0.13604693114757535,0.132013201713562,0.13531352579593656,0.13604693114757535,0.13641364872455597,0.13678035140037534,0.13788045942783358,0.1327466070652008,0.132013201713562,0.1419141888618469,0.1547488123178482,0.18408507108688354,0.1969196945428848,0.21818847954273224,0.242390900850296,0.26145946979522705,0.2592592537403106,0.25705903768539423,0.2277227789163589,0.21928860247135162,0.19765309989452357,0.1419141888618469,0.1217455044388771,0.10964430123567581,0.1114778146147728,0.10744407773017885,0.10561056435108185,0.10194353014230728,0.08177484571933746,0.09864319860935213,0.18591858446598047,0.5621562004089355,1.0,0.9842317700386048,0.6861019730567932,0.3384671807289124,0.10597726702690125,0.028602860867977142,0.0883755013346672,0.13348001241683963,0.1243124306201935,0.12981298565864563,0.1316464990377426,0.13641364872455597,0.14154748618602753,0.1433809995651245,0.1488815546035767,0.1558489203453064,0.15951594710350034,0.1661166101694107,0.16795012354850766,0.178951233625412,0.18738541007041928,0.19471947848796844,0.20168682932853696,0.2108544260263443,0.21892188489437106,0.0,0.0,0.0,0.0,0.0,0.0,0.0,0.0,0.0,0.0,0.0,0.0,0.0,0.0,0.0,0.0,0.0,0.0,0.0,0.0,0.0,0.0,0.0,0.0,0.0,0.0,0.0,0.0,0.0,0.0,0.0,0.0,0.0,0.0,0.0,0.0,0.0,0.0,0.0,0.0,0.0,0.0,0.0,0.0,0.0,0.0,0.0,0.0,0.0,0.0,0.0,0.0,0.0,0.0,0.0,normal
1.0,0.6901206970214844,0.42851299047470087,0.20126815140247345,0.15136019885540009,0.18101860582828516,0.17754141986370087,0.16792799532413483,0.16854162514209747,0.1658825874328613,0.17651870846748352,0.17201881110668182,0.17304152250289917,0.17529146373271942,0.1769277900457382,0.18797300755977633,0.18940478563308719,0.1908365786075592,0.20167723298072812,0.20679076015949246,0.22008590400218964,0.22479034960269928,0.2319492697715759,0.24892616271972656,0.2587441205978393,0.2800163626670837,0.2918797433376312,0.3068112134933472,0.3211290538311005,0.3272652924060821,0.34158313274383545,0.3387195765972137,0.3352423906326294,0.3237881064414978,0.2971977889537811,0.27592554688453674,0.2438126355409622,0.22213131189346316,0.20576804876327517,0.19124566018581393,0.19206382334232328,0.18122315406799322,0.17917774617671964,0.17815503478050232,0.17508693039417267,0.1808140724897385,0.17651870846748352,0.1757005453109741,0.17754141986370087,0.17631417512893677,0.18306402862071994,0.17754141986370087,0.17590509355068204,0.178564116358757,0.1757005453109741,0.18204131722450256,0.17651870846748352,0.17733687162399292,0.17795050144195554,0.17672325670719144,0.18326856195926663,0.17263244092464447,0.170382484793663,0.1724278926849365,0.16792799532413483,0.17283697426319122,0.16751891374588013,0.16731438040733337,0.1691552400588989,0.16547350585460663,0.170382484793663,0.16465534269809723,0.16465534269809723,0.16792799532413483,0.18204131722450256,0.2000409066677093,0.20126815140247345,0.200654536485672,0.2084270864725113,0.21660871803760529,0.22540396451950076,0.22172223031520846,0.2108815759420395,0.18899570405483246,0.16322356462478638,0.16322356462478638,0.15197381377220154,0.15095111727714539,0.15320105850696564,0.1497238725423813,0.1560646295547485,0.1493147909641266,0.1493147909641266,0.1503374874591827,0.1495193243026733,0.14522397518157956,0.04008999839425088,0.0,0.21804049611091614,0.5393741130828859,0.9637962579727172,0.7750051021575926,0.4796482026576996,0.2626304030418396,0.16445080935955048,0.19308651983737946,0.1932910680770874,0.18367764353752136,0.18388219177722928,0.18163223564624786,0.186950296163559,0.18122315406799322,0.18326856195926663,0.18981386721134183,0.19063203036785123,0.20147269964218137,0.20044998824596402,0.20229086279869082,0.0,0.0,0.0,0.0,0.0,0.0,0.0,0.0,0.0,0.0,0.0,0.0,0.0,0.0,0.0,0.0,0.0,0.0,0.0,0.0,0.0,0.0,0.0,0.0,0.0,0.0,0.0,0.0,0.0,0.0,0.0,0.0,0.0,0.0,0.0,0.0,0.0,0.0,0.0,0.0,0.0,0.0,0.0,0.0,0.0,0.0,0.0,0.0,0.0,0.0,0.0,0.0,0.0,0.0,0.0,0.0,0.0,0.0,0.0,0.0,0.0,0.0,0.0,0.0,0.0,0.0,0.0,0.0,0.0,0.0,normal
0.901914834976196,0.8272762894630432,0.1563110649585724,0.05666276067495346,0.06565064191818237,0.06330598145723343,0.10824541002511978,0.1215318515896797,0.1277842968702316,0.12700273096561432,0.13208284974098206,0.13442751765251157,0.13599061965942386,0.13599061965942386,0.13677217066287994,0.13911683857440948,0.14185228943824768,0.1461508423089981,0.1461508423089981,0.1516217291355133,0.1559202820062637,0.15943728387355804,0.16568972170352936,0.16998827457427979,0.17936694622039795,0.18913638591766363,0.19890582561492923,0.2094568163156509,0.21922625601291654,0.2317311465740204,0.23837436735630035,0.2508792579174042,0.25986713171005243,0.2645564675331116,0.2665103673934936,0.2641656994819641,0.2559593617916107,0.24110980331897736,0.22938647866249084,0.21062915027141568,0.19656115770339966,0.18132083117961886,0.168815940618515,0.15826494991779327,0.15005861222743988,0.1504493951797485,0.14576005935668945,0.14302462339401245,0.14107072353363037,0.1406799554824829,0.13989840447902677,0.14028917253017426,0.13911683857440948,0.13755373656749725,0.1406799554824829,0.13755373656749725,0.13911683857440948,0.138726070523262,0.1434153914451599,0.14380617439746857,0.15005861222743988,0.15123094618320465,0.15123094618320465,0.14966784417629242,0.1469323933124542,0.14107072353363037,0.14536929130554202,0.1406799554824829,0.138726070523262,0.13638140261173248,0.13911683857440948,0.13130128383636475,0.13755373656749725,0.13130128383636475,0.13130128383636475,0.13012894988059998,0.12895663082599643,0.12661196291446686,0.12739351391792297,0.12270417809486388,0.13442751765251157,0.1570926159620285,0.1723329424858093,0.1981242746114731,0.1953888237476349,0.17702227830886844,0.1821023821830749,0.20515826344490048,0.17819461226463315,0.16920672357082364,0.18366549909114843,0.15904650092124936,0.13091051578521729,0.09925752133131026,0.09847597032785416,0.09691285341978073,0.09144196659326552,0.08870652318000793,0.08792497217655182,0.08792497217655182,0.0836264193058014,0.086361862719059,0.08792497217655182,0.08792497217655182,0.06643220037221909,0.09769441187381744,0.1477139443159103,0.38296210765838623,0.7987495064735411,1.0,0.2700273692607881,0.0,0.021101992577314373,0.021101992577314373,0.06955841928720474,0.08675263822078705,0.0953497439622879,0.09574052691459656,0.0953497439622879,0.09886674582958221,0.10394685715436937,0.10394685715436937,0.10550996661186217,0.10707307606935501,0.10980851948261262,0.10980851948261262,0.11567018181085585,0.12114106863737105,0.11996873468160628,0.12465807050466537,0.0,0.0,0.0,0.0,0.0,0.0,0.0,0.0,0.0,0.0,0.0,0.0,0.0,0.0,0.0,0.0,0.0,0.0,0.0,0.0,0.0,0.0,0.0,0.0,0.0,0.0,0.0,0.0,0.0,0.0,0.0,0.0,0.0,0.0,0.0,0.0,0.0,0.0,0.0,0.0,0.0,0.0,0.0,0.0,0.0,0.0,0.0,0.0,0.0,0.0,0.0,0.0,0.0,0.0,0.0,0.0,0.0,0.0,normal
1.0,0.8306010961532593,0.25409835577011103,0.025370804592967033,0.05308352783322335,0.11631537973880768,0.1088992953300476,0.11046057939529419,0.10382513701915742,0.10226385295391081,0.10343481600284576,0.1046057790517807,0.10772833973169327,0.10772833973169327,0.10733801871538161,0.11163153499364853,0.11280249804258345,0.11124122142791748,0.1139734610915184,0.1155347377061844,0.1233411431312561,0.12685401737689975,0.12685401737689975,0.136221706867218,0.1487119495868683,0.16354410350322723,0.18110850453376767,0.1975019574165344,0.22170180082321167,0.247853234410286,0.2790788412094116,0.312646359205246,0.34309133887290955,0.37978142499923706,0.4145199060440064,0.43403589725494385,0.4355971813201904,0.40281030535697937,0.35167837142944336,0.2939110100269318,0.2341920435428619,0.1834504306316376,0.1412958651781082,0.1155347377061844,0.09679937362670897,0.09172521531581879,0.09133489429950714,0.08938329666852951,0.08821233361959456,0.09016393125057219,0.0843091309070587,0.08040593564510347,0.08313817530870436,0.07728337496519089,0.08001561462879181,0.08040593564510347,0.08001561462879181,0.07533176988363266,0.07806400954723358,0.08313817530870436,0.0843091309070587,0.08899297565221785,0.08665105700492857,0.08352849632501601,0.085089772939682,0.0843091309070587,0.08274785429239273,0.09211553633213042,0.08665105700492857,0.08626073598861694,0.08626073598861694,0.0858704149723053,0.08235753327608109,0.07298985123634337,0.07494144886732101,0.07025761157274246,0.07494144886732101,0.07689305394887924,0.07728337496519089,0.07806400954723358,0.07494144886732101,0.07103825360536575,0.0686963275074959,0.07533176988363266,0.07533176988363266,0.0757220908999443,0.08235753327608109,0.08704137057065964,0.11631537973880768,0.13661202788352966,0.14051522314548492,0.136221706867218,0.1463700234889984,0.14676034450531006,0.12177985906600952,0.11202185600996016,0.10499610006809233,0.0995316132903099,0.08118657022714613,0.0757220908999443,0.06088992953300476,0.05932864919304848,0.06245120987296104,0.05542545020580292,0.0569867305457592,0.0612802505493164,0.06362216919660568,0.06323184818029404,0.06323184818029404,0.05932864919304848,0.04918032884597778,0.0,0.008196720853447912,0.16861826181411746,0.5659641027450562,0.963700234889984,0.8188914656639099,0.24434036016464236,0.03473848477005958,0.07416081428527832,0.14832162857055664,0.1373926550149918,0.12997658550739288,0.12529273331165314,0.12607337534427643,0.12451209872961044,0.1213895380496979,0.12646369636058807,0.12568305432796478,0.12373145669698718,0.12724433839321134,0.12880562245845792,0.13466042280197144,0.0,0.0,0.0,0.0,0.0,0.0,0.0,0.0,0.0,0.0,0.0,0.0,0.0,0.0,0.0,0.0,0.0,0.0,0.0,0.0,0.0,0.0,0.0,0.0,0.0,0.0,0.0,0.0,0.0,0.0,0.0,0.0,0.0,0.0,0.0,0.0,0.0,0.0,0.0,0.0,0.0,0.0,0.0,0.0,0.0,0.0,0.0,0.0,0.0,0.0,0.0,0.0,0.0,0.0,0.0,normal
1.0,0.7608792185783386,0.4715808033943175,0.2630994617938996,0.20337477326393127,0.23179395496845245,0.2331261038780212,0.2277975082397461,0.2280195355415344,0.2286856174468994,0.22957371175289154,0.230683833360672,0.2369005382061005,0.23756660521030426,0.24045293033123016,0.2448934316635132,0.24911190569400785,0.2528863251209259,0.2588810026645661,0.26509767770767206,0.27442273497581476,0.28174954652786255,0.2944049835205078,0.30506217479705805,0.3214920163154602,0.33325931429862976,0.34991118311882013,0.36145648360252386,0.3752220273017883,0.38210478425025934,0.38743337988853455,0.3934280574321746,0.3834369480609894,0.36256662011146557,0.3348135054111481,0.30417406558990473,0.277531087398529,0.2551065683364868,0.24067495763301844,0.2300177663564682,0.22424511611461637,0.2213587909936905,0.21847246587276456,0.2171403169631958,0.2151421010494232,0.21358792483806607,0.2142539918422699,0.2142539918422699,0.21536411345005038,0.215808168053627,0.2151421010494232,0.2149200737476349,0.21469804644584653,0.2140319645404816,0.215808168053627,0.21625222265720367,0.21603019535541532,0.2175843715667725,0.2171403169631958,0.2149200737476349,0.2151421010494232,0.21536411345005038,0.21380995213985443,0.21469804644584653,0.21203374862670896,0.21092362701892847,0.20914742350578308,0.2082593291997909,0.20537300407886502,0.20248667895793918,0.2031527459621429,0.2029307335615158,0.20248667895793918,0.20159858465194705,0.20026643574237826,0.1984902322292328,0.19738011062145236,0.20581705868244168,0.22158081829547877,0.23246003687381744,0.2433392554521561,0.24000887572765345,0.24600355327129364,0.25532859563827515,0.2579928934574127,0.2528863251209259,0.2428952008485794,0.21802842617034912,0.19804617762565607,0.19071936607360837,0.18583481013774872,0.18272647261619568,0.18272647261619568,0.17806394398212433,0.17806394398212433,0.17806394398212433,0.17873001098632812,0.17739786207675934,0.17761988937854764,0.17495559155941007,0.14031971991062164,0.0,0.09258437156677247,0.3419182896614075,0.7153640985488892,0.9926731586456295,0.6087921857833862,0.3803285956382752,0.19071936607360837,0.18539077043533325,0.20692718029022214,0.2064831256866455,0.20359680056571963,0.2018205970525741,0.20381882786750796,0.20337477326393127,0.20670515298843384,0.2095914781093597,0.2140319645404816,0.2191385477781296,0.22180284559726718,0.0,0.0,0.0,0.0,0.0,0.0,0.0,0.0,0.0,0.0,0.0,0.0,0.0,0.0,0.0,0.0,0.0,0.0,0.0,0.0,0.0,0.0,0.0,0.0,0.0,0.0,0.0,0.0,0.0,0.0,0.0,0.0,0.0,0.0,0.0,0.0,0.0,0.0,0.0,0.0,0.0,0.0,0.0,0.0,0.0,0.0,0.0,0.0,0.0,0.0,0.0,0.0,0.0,0.0,0.0,0.0,0.0,0.0,0.0,0.0,0.0,0.0,0.0,0.0,0.0,0.0,0.0,normal
1.0,0.8099009990692136,0.408580869436264,0.12409240752458572,0.0,0.21914191544055936,0.3188118934631348,0.330033004283905,0.36435642838478083,0.35577556490898127,0.37557756900787354,0.3709571063518524,0.3861386179924011,0.3722772300243378,0.37029704451560974,0.3768976926803589,0.37887787818908686,0.37557756900787354,0.4000000059604645,0.40198019146919245,0.42772278189659124,0.4673267304897309,0.4877887666225432,0.5273927450180054,0.566996693611145,0.5973597168922424,0.6336633563041687,0.6811881065368652,0.7346534729003905,0.7716171741485595,0.7828382849693298,0.8033003211021422,0.7933993339538574,0.7603960633277893,0.6943894624710083,0.6105610728263855,0.5359736084938049,0.4910891056060791,0.4382838308811188,0.40660065412521357,0.3894389569759369,0.3914191424846649,0.3887788653373718,0.38283827900886536,0.4006600677967072,0.4013201296329498,0.3920792043209076,0.3953795433044434,0.3900990188121796,0.38283827900886536,0.383498340845108,0.4006600677967072,0.3947194814682007,0.41254124045372004,0.4112211167812347,0.4013201296329498,0.40924093127250677,0.41056105494499207,0.4231023192405701,0.4145214557647705,0.41056105494499207,0.42244225740432734,0.42442244291305536,0.42508250474929804,0.43036302924156183,0.4316831827163696,0.42244225740432734,0.4363036155700684,0.42508250474929804,0.42640262842178334,0.4217821657657623,0.4211221039295197,0.43036302924156183,0.44092407822608953,0.43498349189758306,0.4178217947483063,0.41386139392852783,0.39339932799339294,0.41584157943725597,0.39339932799339294,0.3768976926803589,0.36237624287605286,0.3821782171726226,0.3861386179924011,0.3848184943199158,0.36765676736831676,0.3900990188121796,0.3894389569759369,0.3861386179924011,0.3782178163528441,0.37557756900787354,0.38019803166389465,0.366996705532074,0.35775578022003174,0.35841584205627447,0.36963695287704473,0.42838284373283386,0.4726072549819946,0.4996699690818787,0.5227722525596619,0.5174917578697203,0.4759075939655303,0.5082508325576782,0.4600660204887391,0.42970296740531916,0.3887788653373718,0.3768976926803589,0.3656765818595886,0.35775578022003174,0.3656765818595886,0.368976891040802,0.36765676736831676,0.37887787818908686,0.38151815533638006,0.3729372918605805,0.500990092754364,0.566996693611145,0.6435643434524536,0.9564356207847596,0.9775577783584594,0.5359736084938049,0.2574257552623748,0.05676567554473876,0.15379537642002106,0.3221122026443481,0.3537953794002533,0.3729372918605805,0.4118811786174775,0.4231023192405701,0.4316831827163696,0.4462046325206757,0.4547854661941528,0.4534653425216675,0.4561056196689606,0.4600660204887391,0.4534653425216675,0.4547854661941528,0.4561056196689606,0.4686468541622161,0.4726072549819946,0.4759075939655303,0.0,0.0,0.0,0.0,0.0,0.0,0.0,0.0,0.0,0.0,0.0,0.0,0.0,0.0,0.0,0.0,0.0,0.0,0.0,0.0,0.0,0.0,0.0,0.0,0.0,0.0,0.0,0.0,0.0,0.0,0.0,0.0,0.0,0.0,0.0,0.0,0.0,0.0,0.0,0.0,0.0,0.0,0.0,0.0,0.0,0.0,0.0,normal
0.9775898456573484,0.6634249687194824,0.15475687384605408,0.025792811065912247,0.06215645000338554,0.12980972230434415,0.10147991776466367,0.0938689187169075,0.08921775966882706,0.0900634229183197,0.08921775966882706,0.08837209641933441,0.09852008521556853,0.1035940796136856,0.11162790656089783,0.12219873070716855,0.1205073967576027,0.13234671950340274,0.13319239020347598,0.14460888504981992,0.15771670639514926,0.16152219474315646,0.17378436028957367,0.17970401048660278,0.19154334068298334,0.20634248852729797,0.22029598057270047,0.2498942911624908,0.2701902687549591,0.3065539002418518,0.3412262201309204,0.3771670162677765,0.4164904952049255,0.4532769620418548,0.4837209284305573,0.5090909004211425,0.4959830939769745,0.4613107740879059,0.395348846912384,0.32473573088645935,0.26427060365676885,0.2038054913282394,0.17758984863758087,0.14926004409790042,0.13150106370449066,0.11839323490858078,0.11247356981039047,0.11966173350811005,0.1133192405104637,0.11458773910999298,0.10274841636419296,0.08921775966882706,0.09809724986553192,0.09767442196607588,0.10232558101415634,0.10739957541227341,0.10528541356325148,0.1112050712108612,0.11205074191093443,0.11247356981039047,0.11797039955854415,0.11712473630905153,0.12346722930669783,0.11289640516042708,0.10570824891328813,0.10274841636419296,0.09767442196607588,0.09556025266647337,0.09471458941698073,0.09809724986553192,0.09725158661603928,0.09133192151784897,0.08372092992067338,0.08414376527070999,0.07949259877204895,0.07695560157299042,0.08118393272161484,0.08033826947212219,0.0900634229183197,0.08372092992067338,0.08287526667118071,0.07991543412208557,0.08329809457063675,0.0786469355225563,0.0689217746257782,0.06807611137628555,0.06257928162813187,0.07230444252490996,0.07610993832349777,0.10824524611234665,0.1378435492515564,0.138266384601593,0.15433403849601746,0.15306553244590757,0.16152219474315646,0.15010571479797363,0.13361522555351255,0.1251585632562637,0.11458773910999298,0.10993657261133194,0.08879492431879042,0.07906977087259291,0.07568710297346115,0.0748414397239685,0.07357294112443925,0.06934460997581482,0.056659620255231864,0.06384778022766112,0.06046511605381966,0.06088794767856597,0.06342494487762451,0.05623678490519523,0.05073995888233184,0.004228329751640558,0.0,0.1649048626422882,0.5213530659675598,1.0,0.8515856266021729,0.24608878791332245,0.018604651093482968,0.04439746215939521,0.13065539300441745,0.12219873070716855,0.11458773910999298,0.11078224331140518,0.10317124426364897,0.10909090936183928,0.10909090936183928,0.11543340235948563,0.11247356981039047,0.10909090936183928,0.11627907305955887,0.12008456885814665,0.12642705440521237,0.13319239020347598,0.0,0.0,0.0,0.0,0.0,0.0,0.0,0.0,0.0,0.0,0.0,0.0,0.0,0.0,0.0,0.0,0.0,0.0,0.0,0.0,0.0,0.0,0.0,0.0,0.0,0.0,0.0,0.0,0.0,0.0,0.0,0.0,0.0,0.0,0.0,0.0,0.0,0.0,0.0,0.0,0.0,0.0,0.0,0.0,0.0,0.0,0.0,0.0,0.0,0.0,0.0,0.0,normal
0.9716719388961794,0.5602218508720397,0.3629159927368164,0.18125990033149722,0.19849444925785062,0.20542788505554202,0.2006735354661941,0.19928684830665588,0.19710776209831238,0.2038431018590927,0.19928684830665588,0.2006735354661941,0.20681458711624146,0.2072107791900635,0.2183042764663696,0.21255943179130557,0.21790808439254758,0.2260301113128662,0.22939778864383695,0.2404912859201431,0.2434627562761307,0.254358172416687,0.26703643798828125,0.2777337431907654,0.294572114944458,0.3050713241100311,0.31774958968162537,0.3335974514484405,0.34251189231872564,0.3543977737426758,0.3551901876926422,0.3553882837295532,0.35301110148429876,0.3312202990055084,0.3137876391410828,0.28129953145980835,0.2612915933132172,0.24267035722732544,0.22801108658313754,0.22266243398189542,0.21057844161987302,0.20522978901863098,0.20483359694480896,0.20324881374835968,0.21057844161987302,0.2034469097852707,0.20404119789600367,0.20463550090789795,0.20483359694480896,0.20800316333770752,0.20225831866264346,0.20463550090789795,0.20998415350914,0.20760697126388547,0.21097464859485626,0.20661647617816925,0.20305071771144864,0.20542788505554202,0.20404119789600367,0.20899365842342374,0.2036450058221817,0.2016640305519104,0.20503169298172,0.20047543942928317,0.20641838014125824,0.19948494434356687,0.19968304038047793,0.19710776209831238,0.19611726701259613,0.2006735354661941,0.19354200363159174,0.19314579665660858,0.19849444925785062,0.1977020651102066,0.20305071771144864,0.20800316333770752,0.22107765078544614,0.23058636486530304,0.2284072935581207,0.23415213823318484,0.24029318988323206,0.24029318988323206,0.254556268453598,0.2420760691165924,0.2319730520248413,0.1977020651102066,0.1870047599077225,0.1818542033433914,0.1772979348897934,0.1792789250612259,0.1711568981409073,0.1707606911659241,0.17412836849689484,0.17056259512901306,0.17670364677906036,0.17135499417781827,0.16996830701828003,0.12797147035598755,0.0,0.14322504401206967,0.3545958697795868,0.7559429407119752,1.0,0.5863708257675171,0.3872821033000946,0.18740095198154447,0.1885895431041717,0.20800316333770752,0.20582409203052518,0.20780506730079648,0.19948494434356687,0.20245641469955442,0.20483359694480896,0.2034469097852707,0.0,0.0,0.0,0.0,0.0,0.0,0.0,0.0,0.0,0.0,0.0,0.0,0.0,0.0,0.0,0.0,0.0,0.0,0.0,0.0,0.0,0.0,0.0,0.0,0.0,0.0,0.0,0.0,0.0,0.0,0.0,0.0,0.0,0.0,0.0,0.0,0.0,0.0,0.0,0.0,0.0,0.0,0.0,0.0,0.0,0.0,0.0,0.0,0.0,0.0,0.0,0.0,0.0,0.0,0.0,0.0,0.0,0.0,0.0,0.0,0.0,0.0,0.0,0.0,0.0,0.0,0.0,0.0,0.0,0.0,0.0,0.0,0.0,0.0,normal
0.9994131326675418,0.7588028311729431,0.30985915660858154,0.1619718372821808,0.13086853921413422,0.0803990587592125,0.0827464759349823,0.03521126881241799,0.05751173570752145,0.05575117468833923,0.038145538419485085,0.05751173570752145,0.02699530497193336,0.06690140813589095,0.08098591864109038,0.0827464759349823,0.09330985695123672,0.06220657378435135,0.08744131773710248,0.09976525604724884,0.10915493220090865,0.1296948343515396,0.1126760542392731,0.1349765211343765,0.14612676203250882,0.1373239457607269,0.160798117518425,0.14964789152145383,0.19307512044906616,0.20422534644603726,0.22359155118465426,0.26173707842826843,0.2388497591018677,0.28051644563674927,0.2998826205730438,0.3198356926441193,0.3386150300502777,0.3016431927680969,0.3139671385288238,0.2869718372821808,0.2523474097251892,0.23474177718162534,0.17899061739444733,0.17781689763069153,0.14671361446380615,0.125,0.13908450305461886,0.10211267322301863,0.1220657303929329,0.10974178463220595,0.10739436745643616,0.1255868524312973,0.08568075299263,0.1220657303929329,0.11737088859081267,0.11561033129692078,0.13145539164543152,0.11091548949480057,0.13615024089813232,0.14025822281837463,0.13321596384048465,0.14495305716991425,0.121478870511055,0.14025822281837463,0.12734742462635038,0.11208920180797577,0.12910798192024234,0.11737088859081267,0.14143192768096924,0.1373239457607269,0.1255868524312973,0.14612676203250882,0.11326291412115096,0.1255868524312973,0.11208920180797577,0.10856807231903075,0.11326291412115096,0.0909624397754669,0.10798121988773345,0.09565727412700653,0.0862676054239273,0.10680751502513885,0.0845070406794548,0.11737088859081267,0.0991784036159515,0.08098591864109038,0.10093896836042404,0.07218309491872787,0.0886150225996971,0.0827464759349823,0.07629107683897017,0.10093896836042404,0.07863849401473998,0.10152582079172134,0.09389671683311462,0.0991784036159515,0.10446009039878845,0.07570422440767288,0.10622065514326096,0.09330985695123672,0.0862676054239273,0.0850938931107521,0.06161971762776375,0.0845070406794548,0.0792253538966179,0.082159623503685,0.0886150225996971,0.0803990587592125,0.11854460090398787,0.14553990960121155,0.16431924700736997,0.17605634033679962,0.14964789152145383,0.1619718372821808,0.1684272289276123,0.16607981920242307,0.11032863706350327,0.07218309491872787,0.11443661898374557,0.06161971762776375,0.03462441265583039,0.05164319276809692,0.028755867853760726,0.042840376496315,0.02464788779616356,0.01525821629911661,0.0,0.0035211266949772835,0.34917840361595154,0.7124413251876831,1.0,0.7634976506233215,0.3409624397754669,0.18896713852882385,0.1238262876868248,0.07629107683897017,0.06455399096012115,0.03227699548006058,0.05457746610045433,0.03697182983160018,0.04577464610338211,0.052816901355981834,0.035798121243715286,0.07218309491872787,0.04988262802362442,0.05516431853175163,0.06396713852882385,0.0422535203397274,0.07981220632791519,0.06924882531166078,0.06514084339141846,0.07100939005613327,0.06866197288036346,0.10269953310489655,0.08802817016839981,0.08685445785522462,0.0,0.0,0.0,0.0,0.0,0.0,0.0,0.0,0.0,0.0,0.0,0.0,0.0,0.0,0.0,0.0,0.0,0.0,0.0,0.0,0.0,0.0,0.0,0.0,0.0,0.0,0.0,0.0,0.0,0.0,0.0,0.0,normal
1.0,0.8648902773857116,0.27460816502571106,0.027272727340459824,0.05987460911273955,0.13824450969696048,0.1507837027311325,0.1498432606458664,0.14733542501926422,0.1548589318990707,0.15047021210193634,0.15642632544040677,0.16238243877887726,0.16238243877887726,0.1727272719144821,0.16927899420261383,0.17899686098098755,0.18401253223419187,0.18714733421802524,0.19686520099639887,0.1981191188097,0.20783698558807373,0.2206896543502808,0.2300940454006195,0.25485894083976746,0.26927900314331055,0.29592475295066833,0.3247648775577545,0.3536050021648407,0.38871473073959356,0.4109717905521392,0.4385579824447632,0.4564263224601746,0.4460815191268921,0.4144200682640076,0.3498432636260986,0.2927899658679962,0.2426332235336304,0.20219436287879944,0.18463949859142306,0.15987460315227509,0.1576802581548691,0.1498432606458664,0.14169278740882874,0.14921629428863523,0.14231975376605988,0.1489028185606003,0.14576803147792816,0.14482758939266205,0.15235109627246854,0.1463949829339981,0.15172414481639862,0.14952978491783142,0.15141065418720243,0.1595611274242401,0.15235109627246854,0.1561128497123718,0.1561128497123718,0.1510971784591675,0.1561128497123718,0.14514106512069702,0.1463949829339981,0.14231975376605988,0.13699059188365936,0.14326018095016477,0.13322883844375608,0.13228839635849002,0.12821316719055176,0.1253918558359146,0.13291536271572113,0.12288401275873183,0.12225705385208127,0.1203761771321297,0.11630094051361085,0.13605014979839328,0.1542319804430008,0.1570532917976379,0.1727272719144821,0.18996864557266238,0.20094044506549838,0.1793103516101837,0.1783699095249176,0.16332288086414334,0.14169278740882874,0.13793103396892548,0.10971786826848984,0.10313479602336884,0.09592476487159729,0.09122256934642792,0.09749216586351392,0.08432602137327194,0.08934169262647629,0.08996865153312683,0.08714733272790909,0.09310344606637952,0.08557993918657303,0.0846394971013069,0.060188088566064835,0.0,0.1263322830200195,0.3282131552696228,0.881504714488983,0.89686518907547,0.37993729114532476,0.041692789644002914,0.001567398081533611,0.07492163032293318,0.10940438508987425,0.10376175493001936,0.11034482717514038,0.10470219701528548,0.10815046727657318,0.11473353952169417,0.11253918707370758,0.12225705385208127,0.1156739816069603,0.12163009494543076,0.1275862008333206,0.12351097166538237,0.13793103396892548,0.0,0.0,0.0,0.0,0.0,0.0,0.0,0.0,0.0,0.0,0.0,0.0,0.0,0.0,0.0,0.0,0.0,0.0,0.0,0.0,0.0,0.0,0.0,0.0,0.0,0.0,0.0,0.0,0.0,0.0,0.0,0.0,0.0,0.0,0.0,0.0,0.0,0.0,0.0,0.0,0.0,0.0,0.0,0.0,0.0,0.0,0.0,0.0,0.0,0.0,0.0,0.0,0.0,0.0,0.0,0.0,0.0,0.0,0.0,0.0,0.0,0.0,0.0,0.0,0.0,0.0,0.0,0.0,normal
1.0,0.9882596731185912,0.325276255607605,0.006906077265739441,0.06215469539165496,0.18577347695827484,0.24309392273426056,0.25414365530014044,0.2424033135175705,0.25690609216690063,0.2631215453147888,0.2631215453147888,0.2534530460834503,0.2734806537628173,0.27486187219619745,0.2707182466983795,0.2879834175109863,0.3031767904758453,0.2969613373279572,0.28936463594436646,0.3031767904758453,0.32872927188873285,0.34530386328697205,0.3563535809516907,0.37707182765007013,0.3915745913982391,0.43715471029281616,0.4564917087554932,0.4834254086017609,0.52555251121521,0.5421270728111267,0.5662983655929565,0.5704419612884521,0.5545580387115479,0.533839762210846,0.4986187815666198,0.4578729271888733,0.4129834175109863,0.3646408915519713,0.3680939078330994,0.3218232095241546,0.31906077265739446,0.31284528970718384,0.294889509677887,0.32389503717422485,0.294889509677887,0.28936463594436646,0.314917117357254,0.2852209806442261,0.3280386626720428,0.28936463594436646,0.30732044577598566,0.3038673996925354,0.3218232095241546,0.3183701634407044,0.2879834175109863,0.31906077265739446,0.30593922734260554,0.294889509677887,0.3225138187408447,0.28314918279647827,0.2921270728111267,0.28314918279647827,0.3052486181259155,0.2886740267276764,0.29281768202781683,0.2866021990776062,0.29627072811126703,0.279696136713028,0.2769336998462677,0.2907458543777465,0.280386745929718,0.28729280829429626,0.2686464190483093,0.2686464190483093,0.31077349185943604,0.2914364635944366,0.33770719170570374,0.375,0.37707182765007013,0.41919890046119684,0.39433702826499933,0.43093922734260554,0.3970994353294373,0.3176795542240142,0.30593922734260554,0.31077349185943604,0.2845304012298584,0.2727900445461273,0.2638121545314789,0.23480662703514096,0.23756906390190125,0.23964087665081024,0.2589778900146484,0.23549723625183105,0.24309392273426056,0.2575966715812683,0.24378453195095065,0.19060774147510529,0.20649170875549316,0.43370166420936573,0.7292817831039426,0.959944725036621,0.9875690340995787,0.33908841013908386,0.0,0.06422652304172514,0.1540055274963379,0.2513812184333801,0.23549723625183105,0.24585635960102084,0.25414365530014044,0.2424033135175705,0.27624309062957764,0.2555248737335205,0.26174032688140864,0.28936463594436646,0.25414365530014044,0.265193372964859,0.28729280829429626,0.29627072811126703,0.3031767904758453,0.0,0.0,0.0,0.0,0.0,0.0,0.0,0.0,0.0,0.0,0.0,0.0,0.0,0.0,0.0,0.0,0.0,0.0,0.0,0.0,0.0,0.0,0.0,0.0,0.0,0.0,0.0,0.0,0.0,0.0,0.0,0.0,0.0,0.0,0.0,0.0,0.0,0.0,0.0,0.0,0.0,0.0,0.0,0.0,0.0,0.0,0.0,0.0,0.0,0.0,0.0,0.0,0.0,0.0,0.0,0.0,0.0,0.0,0.0,0.0,0.0,0.0,0.0,0.0,0.0,0.0,normal
1.0,0.9354425072669986,0.4929457008838654,0.21291150152683258,0.04702864587306976,0.0,0.09405729174613953,0.1385207325220108,0.1385207325220108,0.13723812997341156,0.13980333507061005,0.1363830715417862,0.13595554232597354,0.1389482617378235,0.14707139134407043,0.1453612595796585,0.14621633291244504,0.1611799895763397,0.17443351447582242,0.18426677584648127,0.1919623762369156,0.2077811062335968,0.21633176505565646,0.22573749721050265,0.23557075858116144,0.2556648254394531,0.27020093798637396,0.286019653081894,0.3069687783718109,0.32706284523010254,0.3501496315002441,0.37109875679016113,0.38435229659080505,0.39162033796310414,0.38435229659080505,0.37280890345573436,0.3480119705200196,0.3210773766040802,0.28302693367004395,0.2543822228908539,0.23086789250373846,0.19965797662734983,0.19367250800132751,0.1846943199634552,0.17828132212162015,0.17699871957302094,0.17828132212162015,0.1795639097690582,0.18554937839508057,0.18512184917926788,0.18298418819904327,0.17486105859279633,0.1774262487888336,0.1735784560441971,0.16460025310516355,0.16759298741817474,0.1663103848695755,0.16160751879215238,0.16289012134075165,0.1705857217311859,0.1637451946735382,0.16673792898654938,0.15476699173450467,0.13980333507061005,0.13424541056156158,0.1380932033061981,0.13253527879714966,0.13766567409038544,0.14194099605083466,0.13937580585479736,0.1338178664445877,0.11457888036966322,0.12141940742731094,0.12270200997591017,0.11885420978069305,0.12099187821149827,0.12312953919172287,0.12056434154510498,0.11286874860525133,0.12270200997591017,0.1192817464470863,0.1201368123292923,0.12184694409370422,0.12654981017112735,0.1295425444841385,0.13039760291576385,0.13595554232597354,0.13210773468017578,0.13723812997341156,0.1406584084033966,0.1500641256570816,0.17186832427978516,0.18982471525669095,0.21034629642963407,0.25780248641967773,0.2543822228908539,0.25309962034225464,0.2714835405349731,0.2466866225004196,0.2402736246585846,0.22103463113307953,0.18811458349227905,0.1410859376192093,0.12783241271972656,0.1201368123292923,0.1201368123292923,0.11586148291826248,0.13210773468017578,0.1222744733095169,0.08465155959129332,0.11842668056488034,0.3197947740554809,0.7511757016181946,0.994869589805603,0.7943565845489503,0.4108593463897705,0.2030782401561737,0.03420265018939972,0.04660111293196678,0.11115861684083937,0.1474989354610443,0.14963659644126892,0.15775972604751587,0.14365112781524655,0.15733219683170319,0.1663103848695755,0.16246259212493894,0.17443351447582242,0.18725951015949246,0.19794784486293793,0.1966652423143387,0.21291150152683258,0.21761436760425568,0.22530996799468994,0.2385634928941726,0.2424112856388092,0.259085088968277,0.2706284821033478,0.28559213876724243,0.3146643936634064,0.3411714434623718,0.34972211718559265,0.3629756271839142,0.3813595473766327,0.3941855430603027,0.40530142188072205,0.4070115387439728,0.4023086726665497,0.3770842254161834,0.3561351001262665,0.3219324350357056,0.2761864066123962,0.2462590783834457,0.0,0.0,0.0,0.0,0.0,0.0,0.0,0.0,0.0,0.0,0.0,0.0,0.0,0.0,0.0,0.0,0.0,0.0,0.0,0.0,0.0,0.0,0.0,0.0,0.0,0.0,0.0,0.0,0.0,0.0,0.0,0.0,0.0,0.0,0.0,normal
